record,src,start_ms,n_intervals,n_flagged,flagged_fraction,usable,reason,mean_rr_ms,hr_bpm,rr_cv,rmssd_ms,sdnn_ms,n_rmssd_pairs,n_segments
100,ref,213.88888888888889,63,0,0.0,True,ok,812.9188712522044,73.80810327059719,0.048219551756096,58.40795704726972,39.19858358585281,62,1
100,ref,52208.333333333336,63,0,0.0,True,ok,812.1693121693121,73.87622149837134,0.03038339829001703,25.034822422612706,24.676463690569385,62,1
100,ref,104163.88888888889,63,0,0.0,True,ok,799.2063492063489,75.07447864945385,0.03189434105760824,27.49633406650317,25.490159876993243,62,1
100,ref,155300.0,63,0,0.0,True,ok,806.3492063492064,74.40944881889763,0.059062327580420806,71.23323406951009,47.62486096960916,62,1
100,ref,206897.22222222222,63,0,0.0,True,ok,813.9770723104062,73.71214993770646,0.049801359222739934,58.073538227782066,40.5371645772047,62,1
100,ref,259016.66666666666,63,0,0.0,True,ok,805.9082892416225,74.45015866068499,0.056681783681015674,72.64317630252582,45.68031931753106,62,1
100,ref,310583.3333333333,63,0,0.0,True,ok,793.1216931216934,75.65043362241492,0.0626764778893994,70.83465105245433,49.71007426254483,62,1
100,ref,361269.44444444444,63,0,0.0,True,ok,747.6190476190485,80.2547770700636,0.04847109248451064,23.913569812694863,36.23791200032466,62,1
100,ref,409138.88888888893,63,0,0.0,True,ok,744.7971781305109,80.55884442339575,0.04688239980663864,24.855215956720457,34.917879079970874,62,1
100,ref,456836.1111111111,63,0,0.0,True,ok,764.9911816578482,78.43227665706053,0.06113207831362024,61.28802999338991,46.76550082633646,62,1
100,ref,505788.8888888889,63,0,0.0,True,ok,797.0458553791885,75.27797754052112,0.03925439665697843,24.845199749992265,31.28755416085533,62,1
100,ref,556761.111111111,63,0,0.0,True,ok,779.8941798941805,76.93351424694703,0.03177813535929316,24.68438770586956,24.783582814602195,62,1
100,ref,606711.1111111111,63,0,0.0,True,ok,780.0705467372143,76.91612028035262,0.03092823551149725,25.6802125653931,24.126205585070984,62,1
100,ref,656638.8888888889,63,0,0.0,True,ok,765.0352733686071,78.4277563252838,0.04693822766135312,25.993309343460023,35.9093998303412,62,1
100,ref,705583.3333333334,63,0,0.0,True,ok,778.0423280423274,77.11662699761992,0.045317793145765804,29.401469957874067,35.259161280872256,62,1
100,ref,755422.2222222222,63,0,0.0,True,ok,794.4885361552024,75.52028414451416,0.059455476050304,68.87761498684132,47.236694133616716,62,1
100,ref,806269.4444444444,63,0,0.0,True,ok,797.7072310405654,75.21556489055926,0.05786603106628075,67.14286319523102,46.16015141319015,62,1
100,ref,857291.6666666666,63,0,0.0,True,ok,809.5679012345694,74.11361036980543,0.08564844295013804,106.91389267084831,69.33823020315201,62,1
100,ref,909100.0,63,0,0.0,True,ok,813.3156966490297,73.77209151035457,0.03084931616595983,26.580374868625935,25.090233068663796,62,1
100,ref,961158.3333333333,63,0,0.0,True,ok,799.8677248677261,75.01240284438553,0.0680881503134468,82.1533846782943,54.461513881668445,62,1
100,ref,1012350.0,63,0,0.0,True,ok,800.7495590828928,74.92979461483395,0.0525992571245395,58.16561483816582,42.118831950562715,62,1
100,ref,1063597.2222222222,63,0,0.0,True,ok,805.4673721340396,74.49091307203847,0.05979010455126215,74.60068929629482,48.1589783925246,62,1
100,ref,1115147.222222222,63,0,0.0,True,ok,806.525573192242,74.39317734528737,0.030115302210865016,24.785017506410682,24.2887613774755,62,1
100,ref,1166727.777777778,63,0,0.0,True,ok,804.4973544973495,74.5807300230192,0.09666366376256987,126.77797646519372,77.76566177300877,62,1
100,ref,1218250.0,63,0,0.0,True,ok,814.59435626102,73.65629228687442,0.07961456020941063,104.53608330165714,64.85357142278907,62,1
100,ref,1270369.4444444445,63,0,0.0,True,ok,816.4902998236348,73.48525758721229,0.04922477303836884,61.79460557024652,40.19154969684815,62,1
100,ref,1322600.0,63,0,0.0,True,ok,809.3033509700197,74.137837101607,0.03278364240900139,24.52505850398837,26.531911658607672,62,1
100,ref,1374413.8888888888,63,0,0.0,True,ok,808.9065255731942,74.17420691158817,0.05596647198254067,69.66809862876339,45.27164439998649,62,1
100,ref,1426177.7777777778,63,0,0.0,True,ok,817.5925925925951,73.38618346545844,0.05591340224016531,72.99012769911587,45.71438349820937,62,1
100,ref,1478491.6666666665,63,0,0.0,True,ok,810.4938271604959,74.02894135567384,0.07294897986878904,97.29899682403357,59.1246978813088,62,1
100,ref,1530422.2222222222,63,0,0.0,True,ok,804.7619047619048,74.55621301775147,0.0789307975054676,103.40070837020708,63.52049894487631,62,1
100,ref,1581894.4444444445,63,0,0.0,True,ok,797.6190476190476,75.22388059701493,0.07199904460721622,76.96629284925409,57.42780938908913,62,1
100,ref,1632897.222222222,63,0,0.0,True,ok,763.0070546737259,78.6362323028022,0.06544801857421723,54.39422378381966,49.93729988654479,62,1
100,ref,1681830.5555555555,63,0,0.0,True,ok,789.5943562610238,75.98838507929409,0.03247703805740977,24.724688773947666,25.64368595820524,62,1
100,ref,1732327.7777777778,63,0,0.0,True,ok,773.3686067019404,77.5826681870011,0.06284601536970064,66.14660503178183,48.603135343234115,62,1
100,det,1025.6410256410256,63,0,0.0,True,ok,812.4082037125514,73.85449793073406,0.05035893323345067,62.08709703826863,40.91201048906797,62,1
100,det,52998.88517279822,63,0,0.0,True,ok,812.2312470138558,73.87058823529411,0.0308744455404725,24.928294063542562,25.077189402199355,62,1
100,det,104949.83277591973,63,0,0.0,True,ok,799.1364513103645,75.08104517271921,0.032938934806201095,29.290959390508444,26.322703470970993,62,1
100,det,156131.54960981046,63,0,0.0,True,ok,805.8608058608061,74.45454545454544,0.06108564570141758,74.87863957953111,49.226527671472056,62,1
100,det,207681.15942028986,63,0,0.0,True,ok,814.8855974942927,73.62996742671014,0.05027926926331168,54.02470445056778,40.97185237521016,62,1
100,det,259821.6276477146,63,0,0.0,True,ok,805.6838491621094,74.47089830880743,0.056682614827905896,72.73298428077655,45.66826729512048,62,1
100,det,311404.68227424746,63,0,0.0,True,ok,791.5273132664438,75.80281690140845,0.06404567675911255,72.24906018291189,50.69390245147147,62,1
100,det,361995.54069119284,63,0,0.0,True,ok,748.3498787846609,80.17640104043515,0.049080551048218846,25.048624420378186,36.72942442761893,62,1
100,det,409899.66555183945,63,0,0.0,True,ok,744.9877015094407,80.53824228028502,0.04781803085709201,28.03204267977621,35.62384489893249,62,1
100,det,457591.97324414714,63,0,0.0,True,ok,764.9838084620692,78.43303261623873,0.06333028231354464,65.09748402446712,48.4466405551934,62,1
100,det,506532.88740245264,63,0,0.0,True,ok,797.3668843234043,75.24766977363532,0.03880946283656466,25.79768609986891,30.94538046425651,62,1
100,det,557536.231884058,63,0,0.0,True,ok,780.5559979473012,76.86828383586499,0.03219229815670757,25.602689456013533,25.12789141392594,62,1
100,det,607513.9353400223,63,0,0.0,True,ok,779.8481711525181,76.93805309734522,0.03149066396469635,25.952628550601776,24.55793670124696,62,1
100,det,657402.4526198439,63,0,0.0,True,ok,764.8068517633743,78.4511800092549,0.047741568028528705,27.599645922759656,36.513078342146,62,1
100,det,706343.3667781494,63,0,0.0,True,ok,779.1403443577352,77.00794912559623,0.04576323812209929,28.703352409674228,35.655985109377475,62,1
100,det,756231.884057971,63,0,0.0,True,ok,794.1816637468809,75.54946524064174,0.05980683564607449,69.89393259160416,47.4974922368357,62,1
100,det,807045.707915273,63,0,0.0,True,ok,797.5438410221019,75.23097404038162,0.05897568400884572,69.50566990688202,47.03569355132057,62,1
100,det,858082.4972129319,63,0,0.0,True,ok,809.7538532321156,74.09659090909078,0.08570372773031959,106.85545613272728,69.3989237659824,62,1
100,det,909899.6655518395,63,0,0.0,True,ok,813.6469006034201,73.74206176598541,0.031175793494642307,28.281221292821893,25.36608775076798,62,1
100,det,961962.0958751393,63,0,0.0,True,ok,799.8442781051466,75.01460176991161,0.06873814340571387,84.09612803931591,54.979810690631254,62,1
100,det,1013143.81270903,63,0,0.0,True,ok,800.906018297321,74.91515687140979,0.05275040854854322,59.12687859765719,42.24811967417072,62,1
100,det,1064392.4191750276,63,0,0.0,True,ok,805.6838491621154,74.47089830880688,0.05897878523231459,73.50063598701867,47.518254704876945,62,1
100,det,1115997.7703455964,63,0,0.0,True,ok,805.1529790660226,74.52,0.030094335360758184,25.797686099840913,24.230543768726395,62,1
100,det,1167502.7870680045,63,0,0.0,True,ok,805.506892463414,74.48725834797892,0.09595021600255985,125.3551106092437,77.28856032341533,62,1
100,det,1219074.6934225194,63,0,0.0,True,ok,814.1777706995111,73.69397956965865,0.07900246424306882,103.55918006248734,64.32205021718961,62,1
100,det,1271204.0133779265,63,0,0.0,True,ok,815.770380987771,73.55010845986996,0.05086984602124364,64.43202216355881,41.49811366953917,62,1
100,det,1323377.9264214048,63,0,0.0,True,ok,810.1077666295034,74.06422018348646,0.03343562602719331,26.63871940042318,27.086460326748874,62,1
100,det,1375239.6878483836,63,0,0.0,True,ok,808.5151563412398,74.2101116217994,0.0561383628666179,69.23114274982257,45.38871722984482,62,1
100,det,1427001.1148272017,63,0,0.0,True,ok,817.3629912760346,73.4067980082269,0.05702186520866357,74.3412904076999,46.6075623150921,62,1
100,det,1479286.5105908583,63,0,0.0,True,ok,824.972129319957,72.72972972972958,0.13572235100945249,159.81977414039685,111.96715690857863,62,1
100,det,1532028.9855072463,63,0,0.0,True,ok,803.9142821751542,74.6348228043141,0.07821317063990309,101.96939350402049,62.87668493162054,62,1
100,det,1583489.4091415831,63,0,0.0,True,ok,796.1281874325341,75.36474772171604,0.07204746524606405,75.42544962551102,57.35901791545747,62,1
100,det,1634381.2709030102,63,0,0.0,True,ok,765.3377218594597,78.39676300578047,0.06660614189347308,54.44973860632448,50.97619289859861,62,1
100,det,1683355.629877369,63,0,0.0,True,ok,789.5807895807897,75.98969072164948,0.03321333130292226,25.008578632267838,26.224608354769718,62,1
100,det,1733868.4503901894,63,0,0.0,True,ok,775.2472969864251,77.39465875370944,0.06502363855801255,68.45953826004072,50.409400032321514,62,1
101,ref,230.55555555555557,63,0,0.0,True,ok,845.8553791887125,70.93411175979983,0.058239818985841726,26.146072072622605,49.262464172151134,62,1
101,ref,54327.777777777774,63,0,0.0,True,ok,873.809523809524,68.66485013623976,0.03879836349055745,29.66903927795426,33.902379526272824,62,1
101,ref,110255.55555555556,63,0,0.0,True,ok,818.0335097001761,73.34662857758856,0.05507495606239334,26.899187873311565,45.053159604302614,62,1
101,ref,162616.6666666667,63,0,0.0,True,ok,893.8712522045848,67.12376066689691,0.03624529643816801,36.131783440504044,32.39862851371162,62,1
101,ref,219886.11111111112,63,0,0.0,True,ok,934.8324514991181,64.18262428072823,0.046405288481982394,38.506181394364596,43.381169594135386,62,1
101,ref,279783.3333333334,63,0,0.0,True,ok,973.5449735449732,61.63043478260872,0.1305999608812612,167.35818309725624,127.14493546112197,62,1
101,ref,342069.44444444444,63,0,0.0,True,ok,970.5026455026458,61.82363363772657,0.0848248777547883,116.11814216164207,82.32276826546057,62,1
101,ref,404186.1111111111,63,0,0.0,True,ok,1023.8536155202818,58.60212738469491,0.03427154738654939,38.596571615897616,35.08904770119326,62,1
101,ref,469591.6666666666,63,0,0.0,True,ok,977.645502645502,61.3719388445407,0.050297207673560315,42.12117695871104,49.17283887768308,62,1
101,ref,532166.6666666666,63,0,0.0,True,ok,980.291005291006,61.20631493725539,0.04497583214368188,33.07283214672441,44.08940370592945,62,1
101,ref,594866.6666666666,63,0,0.0,True,ok,1004.5855379188729,59.72612359550552,0.048636830964559605,57.34245467996103,48.859856997201405,62,1
101,ref,659236.1111111111,63,0,0.0,True,ok,1016.3580246913572,59.03431521409055,0.0369921960996483,40.016610947621004,37.597315356833874,62,1
101,ref,724311.1111111111,63,0,0.0,True,ok,1009.9647266313929,59.408015367152736,0.031299217144262606,39.39127619643125,31.611105286881788,62,1
101,ref,788950.0,63,0,0.0,True,ok,1005.7319223985893,59.658044717229274,0.03967822403659055,39.629092270715,39.90565653768213,62,1
101,ref,853302.7777777778,63,0,0.0,True,ok,976.6313932980596,61.43566591422124,0.05332760743005085,42.10787903353061,52.081415545662516,62,1
101,ref,915891.6666666666,63,0,0.0,True,ok,958.2892416225753,62.61157633201433,0.069544047912754,38.485167587723815,66.64331293367707,62,1
101,ref,977163.8888888889,63,0,0.0,True,ok,977.2486772486785,61.396859772604145,0.06660038771883763,43.711758618190025,65.08514080248321,62,1
101,ref,1039722.2222222221,63,0,0.0,True,ok,979.9382716049384,61.228346456692904,0.04458904771764512,40.98456013735652,43.69451435293928,62,1
101,ref,1102491.6666666665,63,0,0.0,True,ok,1001.9400352733691,59.883823270550934,0.035888262867520414,38.0346527110234,35.95788736338334,62,1
101,ref,1166583.3333333333,63,0,0.0,True,ok,985.0529100529125,60.91043373170389,0.03875577605536029,36.86995616841259,38.17648998469164,62,1
101,ref,1229583.3333333333,63,0,0.0,True,ok,961.9047619047656,62.37623762376214,0.035830617774850075,36.19372958583367,34.465641859617826,62,1
101,ref,1291111.111111111,63,0,0.0,True,ok,971.604938271607,61.75349428208373,0.03456569303246682,36.804076185858264,33.58419804512524,62,1
101,ref,1353369.4444444445,63,0,0.0,True,ok,937.7425044091707,63.98344931352269,0.048620430697195315,34.60643777743317,45.593444447440454,62,1
101,ref,1413469.4444444445,63,0,0.0,True,ok,995.634920634917,60.26305300916722,0.03360566266724996,34.243110275763094,33.45897128259121,62,1
101,ref,1477158.3333333333,63,0,0.0,True,ok,1011.816578483246,59.29928534077039,0.06700584102695559,90.86827832847861,67.79762080628652,62,1
101,ref,1541919.4444444445,63,0,0.0,True,ok,996.6490299823613,60.20173420633528,0.04244962337581685,43.33574572830551,42.307375960624434,62,1
101,ref,1605772.222222222,63,0,0.0,True,ok,997.13403880071,60.17245191244722,0.04140113692996279,38.09187106430448,41.28248287791502,62,1
101,ref,1669561.1111111112,63,0,0.0,True,ok,991.4462081128694,60.51765543004569,0.03987840190521694,38.95922977963287,39.53729035452836,62,1
101,ref,1732975.0,63,0,0.0,True,ok,995.5908289241627,60.26572187776791,0.040737244102995195,36.62611801582953,40.557626624586945,62,1
101,det,1103.6789297658863,63,0,0.0,True,ok,844.7912795738883,71.02346041055718,0.058703623185711054,26.638719400414704,49.59230894668022,62,1
101,det,55161.64994425864,63,0,0.0,True,ok,874.5200049547874,68.60906515580737,0.039774120903854106,31.816866174622497,34.78326440991081,62,1
101,det,111148.27201783723,63,0,0.0,True,ok,816.8321211799475,73.45450606585786,0.05471400822259038,30.03433144260532,44.69215939471559,62,1
101,det,163455.96432552955,63,0,0.0,True,ok,911.3269982835197,65.8380582524272,0.1269385620871547,159.29210738176758,115.6825387533129,62,1
101,det,221817.16833890748,63,0,0.0,True,ok,936.1009361009355,64.09565217391308,0.04782723181162314,36.40092685327023,44.77111646997687,62,1
101,det,281739.13043478265,63,0,0.0,True,ok,957.5126966431299,62.66235446313076,0.07793825199341091,105.505609067106,74.62686583786267,62,1
101,det,342987.73690078035,63,0,0.0,True,ok,971.3153191414063,61.77190745126615,0.08374775848160487,114.03381691391924,81.34548075693746,62,1
101,det,405217.39130434784,63,0,0.0,True,ok,1021.7479782697167,58.72289573952204,0.03785556445732425,39.262222701062534,38.678846450529996,62,1
101,det,470523.96878483833,63,0,0.0,True,ok,978.3935870892398,61.32501356483991,0.05003339012953303,40.66667701621523,48.95234804306918,62,1
101,det,533154.960981048,63,0,0.0,True,ok,979.4553272814143,61.25853658536585,0.045199440601416487,31.816866174613864,44.27083288719723,62,1
101,det,595819.3979933109,63,0,0.0,True,ok,1006.5297021818761,59.610759493670884,0.04898802627394236,56.96854618640096,49.30790349598912,62,1
101,det,660222.9654403566,63,0,0.0,True,ok,1017.1471041036282,58.98851774530258,0.037387344031007526,41.544476224376346,38.02842871126537,62,1
101,det,725351.1705685619,63,0,0.0,True,ok,1009.5379660597056,59.433128834355806,0.031533596021905155,40.04577525681616,31.834362390502555,62,1
101,det,790011.1482720178,63,0,0.0,True,ok,1004.5831784962211,59.72626387176331,0.03936724004008858,40.493784196156376,39.54766712809589,62,1
101,det,854292.0847268673,63,0,0.0,True,ok,960.8748739183518,62.44309392265196,0.10588293648851325,99.80360083682886,101.74025324850503,62,1
101,det,915886.287625418,63,0,0.0,True,ok,958.3974801366096,62.604505169867124,0.0699795799370504,40.61735416358736,67.06825307268754,62,1
101,det,977157.1906354515,63,0,0.0,True,ok,977.3318468970654,61.39163498098853,0.06651275925680228,43.77646192333343,65.00503784667045,62,1
101,det,1039721.2931995541,63,0,0.0,True,ok,979.9861973774996,61.22535211267619,0.04526068284255423,42.94430967315423,44.35484446958376,62,1
101,det,1102486.0646599778,63,0,0.0,True,ok,1001.9288280157831,59.884493111974656,0.03627540890339409,37.699433984299844,36.345377928370944,62,1
101,det,1166577.4804905239,63,0,0.0,True,ok,985.1179416396818,60.90641278965325,0.03911256231299721,37.40584100294909,38.5304868780336,62,1
101,det,1229576.3656633222,63,0,0.0,True,ok,961.9366141105263,62.37417218543052,0.03595840788851981,37.055868620957014,34.589709133087986,62,1
101,det,1291114.827201784,63,0,0.0,True,ok,971.4922758400965,61.760655737705264,0.03447907102740115,37.29850694810701,33.49615118126228,62,1
101,det,1353366.7781493869,63,0,0.0,True,ok,937.6935463891963,63.98678996037004,0.04916422941821671,36.483437560249214,46.10098063865968,62,1
101,det,1413467.1125975475,63,0,0.0,True,ok,995.5583868627325,60.26768574475662,0.03434628248442805,36.51089969253995,34.19372958492892,62,1
101,det,1477157.1906354516,63,0,0.0,True,ok,1011.8384031427485,59.298006295907804,0.06703975912618712,90.73483705336074,67.83340282131567,62,1
101,det,1541917.5027870678,63,0,0.0,True,ok,996.6201270549108,60.203480113636296,0.04197676060590977,43.13061991748143,41.83488448841537,62,1
101,det,1605774.8049052395,63,0,0.0,True,ok,996.9740404523022,60.18210862619803,0.04143830397699367,38.69652914982682,41.31291334543408,62,1
101,det,1669554.0691192865,63,0,0.0,True,ok,991.4883827927285,60.515081206496646,0.04083507004654854,41.447861032583894,40.4874975616802,62,1
101,det,1732976.5886287626,63,0,0.0,True,ok,995.5583868627325,60.26768574475662,0.04129792784215792,38.33219594815802,41.11449842331226,62,1
103,ref,736.1111111111112,63,0,0.0,True,ok,856.3932980599648,70.06126756937651,0.03988598143843804,29.286959650593,34.158087190422485,62,1
103,ref,55527.77777777778,63,0,0.0,True,ok,850.705467372134,70.52969835181922,0.03376580555542031,28.28391924069875,28.72475539622043,62,1
103,ref,109938.88888888888,63,0,0.0,True,ok,828.7918871252207,72.39453104218757,0.03605916200340708,26.542891508003066,29.88554092495781,62,1
103,ref,163061.1111111111,63,0,0.0,True,ok,869.1798941798947,69.03058895145331,0.036747754248105016,30.867582450782493,31.940409148716697,62,1
103,ref,218605.55555555556,63,0,0.0,True,ok,810.4056437389771,74.03699673558215,0.04144818657896517,28.40904565362599,33.5898443263395,62,1
103,ref,270488.8888888889,63,0,0.0,True,ok,867.5485008818343,69.16039845497052,0.03647896034224181,31.268164772442933,31.64726735863977,62,1
103,ref,325994.4444444445,63,0,0.0,True,ok,846.781305114637,70.8565477740173,0.04576352621454039,29.105799263670498,38.751698454596415,62,1
103,ref,380263.88888888893,63,0,0.0,True,ok,872.8395061728393,68.74115983026876,0.038794054919724895,32.45558801115274,33.86098373857468,62,1
103,ref,436080.55555555556,63,0,0.0,True,ok,860.6261022927689,69.71668630565091,0.03602320831617356,29.83009767333176,31.00251336522891,62,1
103,ref,491161.1111111111,63,0,0.0,True,ok,867.063492063492,69.19908466819223,0.03853364204763781,30.465818047351206,33.41111423574945,62,1
103,ref,546711.1111111111,63,0,0.0,True,ok,849.9559082892421,70.59189707942103,0.03811499777692343,27.473694018133383,32.3960675549274,62,1
103,ref,601125.0,63,0,0.0,True,ok,852.3368606701944,70.39470280895968,0.037039371320511154,32.600975081477294,31.57002147252211,62,1
103,ref,655688.8888888889,63,0,0.0,True,ok,860.8024691358034,69.70240229472921,0.03398883288032762,29.570299769092752,29.257671266430197,62,1
103,ref,710736.1111111111,63,0,0.0,True,ok,858.2892416225735,69.9065036473853,0.03292045118484045,29.71514503890055,28.255269081309663,62,1
103,ref,765638.8888888889,63,0,0.0,True,ok,880.0264550264544,68.17976852547727,0.04012270891587828,33.05965909290444,35.30904529329868,62,1
103,ref,821963.8888888889,63,0,0.0,True,ok,883.9506172839523,67.87709497206691,0.03578258108325625,32.307620736055576,31.630034636557436,62,1
103,ref,878533.3333333333,63,0,0.0,True,ok,876.234567901236,68.47481507573077,0.04418334910019689,33.85016001931003,38.71497780724049,62,1
103,ref,934619.4444444444,63,0,0.0,True,ok,890.4320987654344,67.3830155979201,0.035439538652846866,29.1527958141924,31.55650278193317,62,1
103,ref,991580.5555555555,63,0,0.0,True,ok,875.9700176366845,68.49549504202949,0.036134239301127344,31.935677463013057,31.652510237896696,62,1
103,ref,1047613.8888888889,63,0,0.0,True,ok,833.1569664903033,72.01524132091419,0.09258531881800738,30.26499187464104,77.13810336794862,62,1
103,ref,1100758.3333333335,63,0,0.0,True,ok,844.2680776014089,71.06747440986021,0.09000952032181783,35.94876658799799,75.99216468792609,62,1
103,ref,1154686.1111111112,63,0,0.0,True,ok,867.3721340387979,69.17446116307465,0.07595330481169295,46.357784734578004,65.8797800818174,62,1
103,ref,1210100.0,63,0,0.0,True,ok,848.9417989417977,70.67622312246816,0.07993580754401453,32.798881487642625,67.86084825628102,62,1
103,ref,1264436.1111111112,63,0,0.0,True,ok,884.0388007054645,67.8703241895264,0.04246854569013295,31.624350774831182,37.54384219961035,62,1
103,ref,1321000.0,63,0,0.0,True,ok,865.6966490299803,69.30834267087721,0.08422932483070235,63.646884652177285,72.91704425599674,62,1
103,ref,1376397.222222222,63,0,0.0,True,ok,884.4356261022936,67.8398723764893,0.03907960969219702,32.48433436735908,34.563399065951536,62,1
103,ref,1433044.4444444445,63,0,0.0,True,ok,894.1798941798929,67.10059171597642,0.04723038609000187,37.99700516402309,42.232461636033364,62,1
103,ref,1490225.0,63,0,0.0,True,ok,881.6137566137578,68.0570142535633,0.039996746991484776,32.023239271579165,35.26168236749291,62,1
103,ref,1546655.5555555555,63,0,0.0,True,ok,881.9664902998253,68.02979553067027,0.040026522111852494,31.855689385641178,35.30205122589889,62,1
103,ref,1603091.6666666667,63,0,0.0,True,ok,886.6843033509683,67.66782695176542,0.03388682755820096,30.835311054189816,30.046918086217815,62,1
103,ref,1659805.5555555557,63,0,0.0,True,ok,892.0634920634884,67.2597864768686,0.03920017033106784,36.01448334706042,34.96904083501593,62,1
103,ref,1716941.6666666665,63,0,0.0,True,ok,889.0211640211664,67.48995685165879,0.04438822693979628,30.67750185186634,39.46207318285339,62,1
103,det,735.7859531772575,63,0,0.0,True,ok,856.4704216878131,70.05495867768595,0.0406635709435555,31.116108528956858,34.82714575335928,62,1
103,det,55529.54292084727,63,0,0.0,True,ok,850.6308506308505,70.53588516746412,0.03375468149086152,28.91210681396888,28.71277342934496,62,1
103,det,109944.25863991081,63,0,0.0,True,ok,828.6882199925677,72.4035874439462,0.036243222382084175,27.852693156598946,30.034331442604127,62,1
103,det,163065.77480490523,63,0,0.0,True,ok,869.2113039939127,69.02809446254072,0.036782767273550426,31.94262502915497,31.971997106347384,62,1
103,det,218606.46599777034,63,0,0.0,True,ok,810.4616800268973,74.03187772925766,0.042045515916780934,30.167522035858408,34.076279467511924,62,1
103,det,270490.52396878484,63,0,0.0,True,ok,867.4417370069543,69.16891064871481,0.0366322447157521,31.87980761335069,31.776337986695825,62,1
103,det,325997.7703455964,63,0,0.0,True,ok,846.737803259542,70.86018808777432,0.04636450092183017,30.39920141710265,39.25857565977549,62,1
103,det,380267.5585284281,63,0,0.0,True,ok,872.7504379678294,68.74817518248175,0.03949996084543311,33.354789467467306,34.473608127563864,62,1
103,det,436075.80824972125,63,0,0.0,True,ok,860.7173824565141,69.70929276315779,0.036720128361397285,31.180464561572954,31.60565276668908,62,1
103,det,491159.42028985504,63,0,0.0,True,ok,867.0878236095638,69.19714285714278,0.03935456890226504,33.052929960443436,34.123867498557615,62,1
103,det,546711.259754738,63,0,0.0,True,ok,849.9230238360682,70.59462835727663,0.03796601677866338,27.74452694933352,32.26819178353248,62,1
103,det,601125.9754738015,63,0,0.0,True,ok,852.4004176178086,70.38945401702307,0.03793656411502509,34.12713091056122,32.33714309463216,62,1
103,det,655685.618729097,63,0,0.0,True,ok,860.8943391552081,69.69496402877704,0.034453960635863076,31.083880546710006,29.661219672890894,62,1
103,det,710735.7859531773,63,0,0.0,True,ok,858.2399886747719,69.91051546391748,0.032786328633338205,30.563611493458062,28.13853831496353,62,1
103,det,765641.0256410256,63,0,0.0,True,ok,880.0056626143577,68.18137944902477,0.04037466810037186,34.36128206784011,35.529936554502505,62,1
103,det,821962.0958751393,63,0,0.0,True,ok,884.0756666843616,67.86749399519621,0.03628232827059133,33.68371063307484,32.07632355468389,62,1
103,det,878528.4280936454,63,0,0.0,True,ok,876.2895719417471,68.47051696284319,0.04486561334429799,35.84600218823781,39.31526911237882,62,1
103,det,934615.3846153846,63,0,0.0,True,ok,890.4461078374103,67.3819554848968,0.03580150251287949,30.067684402844392,31.879308567324806,62,1
103,det,991583.0546265328,63,0,0.0,True,ok,875.9356585443555,68.49818181818172,0.03612236675384766,32.40987497551989,31.640869110712284,62,1
103,det,1047614.2697881828,63,0,0.0,True,ok,833.1121374599651,72.01911639762093,0.09252893915540035,30.16752203585338,77.08698227665865,62,1
103,det,1100758.0824972128,63,0,0.0,True,ok,844.2604094778025,71.06811989100804,0.09006664543038108,37.45939269966479,76.03970295134557,62,1
103,det,1154682.2742474917,63,0,0.0,True,ok,867.4417370069543,69.16891064871481,0.07630765248290032,47.69904049832928,66.19244261669009,62,1
103,det,1210100.3344481606,63,0,0.0,True,ok,849.0382403425895,70.66819508128376,0.08001585440948486,33.97996709032589,67.93652022733785,62,1
103,det,1264437.0122630992,63,0,0.0,True,ok,884.0756666843616,67.86749399519621,0.04318869328185054,32.5333416129377,38.18207280637843,62,1
103,det,1321003.3444816053,63,0,0.0,True,ok,865.6721700199969,69.31030253475055,0.08483206160906616,65.25126993217796,73.43675486039037,62,1
103,det,1376399.1081382385,63,0,0.0,True,ok,884.4295800817532,67.84033613445384,0.03953787922212746,32.778879750015165,34.96846991774927,62,1
103,det,1433043.4782608694,63,0,0.0,True,ok,894.1621985100247,67.10191965169206,0.04756364040995184,38.122442275556864,42.52960927810279,62,1
103,det,1490222.9654403569,63,0,0.0,True,ok,881.5982729026213,68.05820955439579,0.04045685339120885,34.156487587731434,35.66669207676428,62,1
103,det,1546655.5183946488,63,0,0.0,True,ok,881.9521863000091,68.03089887640475,0.04004418230151316,31.563845329945043,35.31705412941566,62,1
103,det,1603088.071348941,63,0,0.0,True,ok,886.730017164796,67.66433845539841,0.03445485889885614,32.13034040620825,30.552157622793327,62,1
103,det,1659810.4793756967,63,0,0.0,True,ok,892.0387181256757,67.26165443364404,0.03955198249945287,37.40584100294238,35.281899768141095,62,1
103,det,1716945.3734671127,63,0,0.0,True,ok,889.0304542478425,67.48925159235692,0.04487329498483952,31.56384532991984,39.893725823969305,62,1
105,ref,547.2222222222223,63,0,0.0,True,ok,722.7954144620811,83.01104129811505,0.12464199793312487,150.059310589327,90.09066455545485,62,1
105,ref,46816.66666666667,63,0,0.0,True,ok,722.222222222222,83.07692307692311,0.09930566354436507,118.34010615514202,71.72075700426363,62,1
105,ref,93027.77777777777,63,0,0.0,True,ok,713.7566137566139,84.06226834692363,0.09965943274462842,121.55088106048005,71.13257924471098,62,1
105,ref,138730.55555555556,63,0,0.0,True,ok,716.3139329805992,83.76215683860647,0.07722060892132124,86.51843195585379,55.314198083588366,62,1
105,ref,184566.66666666666,63,0,0.0,True,ok,716.3139329806002,83.76215683860637,0.12882661882408084,154.8655812878453,92.28030200246997,62,1
105,ref,230372.22222222225,63,0,0.0,True,ok,723.5008818342153,82.93009933573038,0.031212608280412057,21.91771658451033,22.582349615224054,62,1
105,ref,276713.8888888889,63,0,0.0,True,ok,715.2116402116409,83.89125208063614,0.10703378541823215,132.01257437423075,76.55180922703462,62,1
105,ref,322511.1111111111,63,0,0.0,True,ok,721.5608465608462,83.15307057745191,0.10581867111736758,126.0395838715312,76.35460991339151,62,1
105,ref,368661.1111111111,63,0,0.0,True,ok,724.2063492063492,82.84931506849315,0.08570452031162594,104.55453474985933,62.06775776536402,62,1
105,ref,415005.5555555555,63,0,0.0,True,ok,717.7689594356269,83.59235825296385,0.1117506314131422,133.99718994655686,80.21113442568536,62,1
105,ref,460683.3333333333,63,0,0.0,True,ok,725.0000000000009,82.75862068965507,0.08388007744132642,79.41661793040792,60.81305614496173,62,1
105,ref,507066.6666666667,63,0,0.0,True,ok,724.4268077601399,82.82410225197822,0.07885142569945347,92.66924843620043,57.12208660679094,62,1
105,ref,553413.8888888889,63,0,0.0,True,ok,722.0458553791904,83.09721543722502,0.029597489817101672,19.43484145870344,21.370744852066053,62,1
105,ref,599655.5555555556,63,0,0.0,True,ok,728.1305114638452,82.40280973719264,0.07190353240493659,88.0533083168382,52.35515582606365,62,1
105,ref,646266.6666666666,63,0,0.0,True,ok,723.5890652557322,82.9199926878313,0.11137019051906918,138.43159484602404,80.58625205504607,62,1
105,ref,692533.3333333333,63,0,0.0,True,ok,733.3333333333352,81.81818181818161,0.07475819309254723,86.79991021070994,54.82267493453478,62,1
105,ref,739466.6666666667,63,0,0.0,True,ok,727.2927689594346,82.49772658381339,0.07936136015479003,92.13522043759217,57.71894337536419,62,1
105,ref,786019.4444444444,63,0,0.0,True,ok,715.6084656084662,83.84473197781878,0.07360859560814835,86.68513152255076,52.674934158741124,62,1
105,ref,831791.6666666666,63,0,0.0,True,ok,704.2328042328036,85.199098422239,0.08037500382201973,91.11310536326424,56.60271433180326,62,1
105,ref,876847.2222222221,63,0,0.0,True,ok,705.8201058201071,85.00749625187392,0.033645361460073527,18.273089897917323,23.747572586104848,62,1
105,ref,922022.2222222222,63,0,0.0,True,ok,727.9100529100535,82.42776667272389,0.030593581071712332,21.042853243837925,22.269375216618137,62,1
105,ref,968605.5555555556,63,0,0.0,True,ok,732.363315696647,81.92655027092137,0.029150973725229682,21.072403677173234,21.349103773195047,62,1
105,ref,1015452.7777777778,63,0,0.0,True,ok,700.0881834215196,85.70348910442087,0.06255317122236025,68.44441244241406,43.79273600831746,62,1
105,ref,1060247.2222222222,63,0,0.0,True,ok,690.1675485008847,86.9354117421577,0.031233019155475057,19.66401881614045,21.55601626281539,62,1
105,ref,1104436.1111111112,63,0,0.0,True,ok,702.2486772486748,85.43981917498617,0.032031638353103624,20.873616967480686,22.49417566357494,62,1
105,ref,1149352.777777778,63,0,0.0,True,ok,700.5731922398536,85.64415633457173,0.0796770717138652,89.41934018461411,55.81962047890629,62,1
105,ref,1194191.6666666665,63,0,0.0,True,ok,671.8253968254005,89.30891907855828,0.15459446897023935,150.74073707135022,103.86049046294312,62,1
105,ref,1237175.0,63,0,0.0,True,ok,655.7319223985875,91.50080688542249,0.06717301599409063,70.18600479312082,44.047490911116114,62,1
105,ref,1279141.6666666667,63,0,0.0,True,ok,659.4356261022936,90.98689489168216,0.165560034600173,162.50363779896205,109.17618507408247,62,1
105,ref,1321341.6666666667,63,0,0.0,True,ok,667.7248677248652,89.85736925515089,0.1610517251121982,167.17328914076583,107.53824184740391,62,1
105,ref,1364030.5555555555,63,0,0.0,True,ok,654.1446208112858,91.72283634402828,0.028443734660612924,16.441126275718563,18.606316024023467,62,1
105,ref,1405866.6666666665,63,0,0.0,True,ok,650.2645502645515,92.27013832384034,0.030085996326407228,17.507892058960277,19.563856870452145,62,1
105,ref,1447491.6666666665,63,0,0.0,True,ok,671.3403880070555,89.37344016813334,0.082136328394408,86.56876305430575,55.14143457377679,62,1
105,ref,1490433.3333333335,63,0,0.0,True,ok,675.5291005290956,88.81926767182364,0.03017047661183566,19.121746228120724,20.38103492812746,62,1
105,ref,1533666.6666666667,63,0,0.0,True,ok,676.9400352733653,88.63414316420287,0.029988085582091407,18.064169436813515,20.300135711721655,62,1
105,ref,1577022.222222222,63,0,0.0,True,ok,691.5784832451544,86.75804909148812,0.10183725648871012,115.86546445879459,70.4284553803099,62,1
105,ref,1621275.0,63,0,0.0,True,ok,694.7530864197539,86.36161705908475,0.12302014790640727,121.04763059616151,85.46862744979107,62,1
105,ref,1665708.3333333333,63,0,0.0,True,ok,673.8977072310397,89.034284218791,0.06806381420035613,71.95895634221681,45.86804833501948,62,1
105,ref,1708844.4444444445,63,0,0.0,True,ok,678.9241622574923,88.37511365112395,0.08005972019530717,84.73507452901991,54.35447846416816,62,1
105,ref,1752327.7777777778,63,0,0.0,True,ok,698.8095238095275,85.86030664395184,0.031532228813634336,19.893683969723885,22.035021801908872,62,1
105,det,546.2653288740245,63,0,0.0,True,ok,722.8681141724619,83.00269277845779,0.12297977279113749,148.23023634950414,88.8981564388874,62,1
105,det,46811.594202898545,63,0,0.0,True,ok,722.3372440763746,83.06369426751591,0.09824466195635588,116.79541038085702,70.96577836276916,62,1
105,det,93032.32998885172,63,0,0.0,True,ok,713.6663658402789,84.07289858666006,0.09765438903299584,118.82027588134297,69.69265292953092,62,1
105,det,138729.09698996655,63,0,0.0,True,ok,716.3207163207163,83.76136363636364,0.07552160051742118,83.71387093285787,54.097686980326124,62,1
105,det,184570.79152731324,63,0,0.0,True,ok,716.143759622021,83.78206078576717,0.12805592160305593,153.85084449218436,91.70644913867525,62,1
105,det,230367.89297658863,63,0,0.0,True,ok,723.5759409672446,82.92149669845936,0.03151639219246232,22.74162873199265,22.804503136553645,62,1
105,det,276711.259754738,63,0,0.0,True,ok,715.2589761285409,83.88570014844142,0.10638441709899452,131.16137695035624,76.09240925025846,62,1
105,det,322508.36120401334,63,0,0.0,True,ok,721.6294172815914,83.1451692005885,0.10555473279454007,125.84189741377125,76.17140031783804,62,1
105,det,368662.20735785953,63,0,0.0,True,ok,724.1068110633328,82.86070381231671,0.08457254364872317,103.02549134671844,61.239554884991456,62,1
105,det,415005.5741360089,63,0,0.0,True,ok,717.7363699102832,83.59615384615381,0.11139463896691448,133.68932856406911,79.95198379957978,62,1
105,det,460680.04459308804,63,0,0.0,True,ok,724.9915945568124,82.75958018061992,0.08413182274490999,80.31649211887863,60.99486432480339,62,1
105,det,507068.0044593088,63,0,0.0,True,ok,724.4607244607242,82.82022471910115,0.07795245366243755,91.35133903350201,56.47349105378055,62,1
105,det,553411.3712374582,63,0,0.0,True,ok,721.9833306789819,83.10441176470599,0.030721831394153267,21.19023247767899,22.180650154508886,62,1
105,det,599654.4035674471,63,0,0.0,True,ok,728.1768151333349,82.39756986634288,0.0987541431122666,123.7456574061519,71.91047741271186,62,1
105,det,646265.3288740244,63,0,0.0,True,ok,723.5759409672455,82.92149669845926,0.11314193940566665,141.15070690624302,81.86678526831432,62,1
105,det,692530.657748049,63,0,0.0,True,ok,733.3085593955152,81.82094594594602,0.07424936280818274,86.74787527049138,54.44769327690343,62,1
105,det,739464.8829431438,63,0,0.0,True,ok,727.2920316398562,82.49781021897827,0.07746439286088667,89.38823444710451,56.33923566354224,62,1
105,det,786020.066889632,63,0,0.0,True,ok,715.6128895259333,83.8442136498516,0.07295539077046512,86.30770428206235,52.20781799574615,62,1
105,det,831783.7235228539,63,0,0.0,True,ok,704.2876608094001,85.19246231155776,0.08013724846337646,91.5157682881747,56.4396752639731,62,1
105,det,876845.0390189519,63,0,0.0,True,ok,705.8802710976637,85.00025068939568,0.03483637079889214,20.856507172664084,24.590306863580718,62,1
105,det,922017.8372352285,63,0,0.0,True,ok,727.9998584346428,82.41759844433622,0.03082837265002206,21.888230961665993,22.443050924986473,62,1
105,det,968606.4659977703,63,0,0.0,True,ok,732.4237759020365,81.91978738825807,0.02914205561153064,21.378593804028995,21.344334408544402,62,1
105,det,1015451.5050167224,63,0,0.0,True,ok,700.0407000407004,85.70930232558136,0.07481382443523296,70.79159810490547,52.37272203036254,62,1
105,det,1060245.2619843923,63,0,0.0,True,ok,690.1311249137332,86.94000000000005,0.04989203843437181,48.55292216122367,34.43204860895223,62,1
105,det,1104437.0122630992,63,0,0.0,True,ok,702.1641804250474,85.45010080645193,0.0330701654375904,23.264493098332295,23.22068561100639,62,1
105,det,1149353.4002229653,63,0,0.0,True,ok,700.5715701367913,85.64435463500838,0.07942201199898559,89.08497512854608,55.64080364955241,62,1
105,det,1194191.7502787067,63,0,0.0,True,ok,682.3450301711167,87.93205394190876,0.2509087366477418,275.1708665779728,171.20632947810017,62,1
105,det,1237848.3835005574,63,0,0.0,True,ok,665.7111004937093,90.1291866028708,0.1444477947602498,131.94611990670606,96.16050041373535,62,1
105,det,1280401.3377926422,63,0,0.0,True,ok,732.0698625046449,81.95939086294419,0.3776526934305446,324.43566207864274,276.46815535420757,62,1
105,det,1327848.3835005574,63,0,0.0,True,ok,657.5710923537014,91.24488697524215,0.12549191832274617,143.92125151354782,82.51985781304967,62,1
105,det,1369910.8138238573,63,0,0.0,True,ok,653.8550016810889,91.76346414073069,0.030339591255207896,18.942540641036693,19.837693491177507,62,1
105,det,1411727.9821627648,63,0,0.0,True,ok,650.6697811045617,92.21267337503429,0.03231892850109133,19.61834314665997,21.028950133339077,62,1
105,det,1453355.629877369,63,0,0.0,True,ok,675.0898055245893,88.87706422018333,0.08782333545559544,96.98190573427054,59.2886384532387,62,1
105,det,1496555.1839464884,63,0,0.0,True,ok,675.2667622232832,88.85377358490577,0.032578468989059105,22.20645662067514,21.999157272433578,62,1
105,det,1539765.8862876254,63,0,0.0,True,ok,678.9828528958957,88.36747458952316,0.06703369170935611,72.17966331721613,45.51472723696256,62,1
105,det,1583244.1471571906,63,0,0.0,True,ok,691.01590840721,86.8286811779773,0.08162251229308543,90.59112049869844,56.40245447868509,62,1
105,det,1627447.0457079152,63,0,0.0,True,ok,704.995487604183,85.1069277108434,0.14572774269901217,97.1677543347814,102.73740102154702,62,1
105,det,1672530.657748049,63,0,0.0,True,ok,679.5137229919848,88.29843749999988,0.15020482015482128,148.00693167368644,102.06623655474412,62,1
105,det,1716164.9944258637,63,0,0.0,True,ok,684.1145971580778,87.7046042421104,0.07706531361509461,82.44714228723826,52.72150597865138,62,1
105,det,1759955.4069119284,63,0,0.0,True,ok,700.5715701367876,85.64435463500882,0.030003886137968023,20.614824537658475,21.019869621881654,62,1
106,ref,975.0,63,0,0.0,True,ok,884.2592592592592,67.85340314136126,0.11338698568090795,47.96096207245318,100.2634919678399,62,1
106,ref,57472.22222222222,63,0,0.0,True,ok,855.1587301587304,70.16241299303942,0.28342173314019076,380.43829787057274,242.37056941155205,62,1
106,ref,111819.44444444444,63,0,0.0,True,ok,805.952380952381,74.44608567208272,0.4374237323673412,617.5880697478389,352.5426985865357,62,1
106,ref,163866.6666666667,63,0,0.0,True,ok,987.5661375661374,60.75542459148139,0.23065381300660162,338.84647040477466,227.78589522583167,62,1
106,ref,227233.3333333333,63,0,0.0,True,ok,963.9770723104058,62.24214426199514,0.1157420747320219,122.34282498769603,111.57270634330666,62,1
106,ref,289002.7777777778,63,0,0.0,True,ok,1019.708994708995,58.840316513166414,0.0600271620469646,67.22622103691523,61.21023706614421,62,1
106,ref,354344.44444444444,63,0,0.0,True,ok,990.6525573192233,60.56613850810045,0.062312184483063894,58.194492562069264,61.72972491029447,62,1
106,ref,417738.8888888889,63,0,0.0,True,ok,901.1463844797182,66.58185732459141,0.1495305368112818,163.76202489129489,134.748902616798,62,1
106,ref,475438.8888888889,63,0,0.0,True,ok,910.7583774250455,65.87916343919431,0.06400816084321011,44.741669673576354,58.295968711523365,62,1
106,ref,533836.1111111111,63,0,0.0,True,ok,954.4532627865972,62.86321430221271,0.0661277245926902,44.56329315452277,63.11582249814667,62,1
106,ref,594955.5555555555,63,0,0.0,True,ok,927.8659611992956,64.66451245010447,0.07041876294663661,44.80004471395191,65.33917316794633,62,1
106,ref,654380.5555555556,63,0,0.0,True,ok,896.9135802469109,66.89607708189972,0.0775719602227862,46.896939973668005,69.57534457019013,62,1
106,ref,711402.7777777779,63,0,0.0,True,ok,755.5996472663135,79.4071307696797,0.32626909747032107,432.958521618013,246.52881496247306,62,1
106,ref,759977.7777777778,63,0,0.0,True,ok,700.3968253968254,85.6657223796034,0.3427873207456734,473.557830804108,240.087151236553,62,1
106,ref,805083.3333333334,63,0,0.0,True,ok,773.7213403880061,77.54729883747446,0.3840520710139109,576.1389642552016,297.14928316367286,62,1
106,ref,854861.1111111111,63,0,0.0,True,ok,770.6790123456786,77.85342410893075,0.3714044988676484,539.8971648620458,286.23365236806103,62,1
106,ref,904505.5555555556,63,0,0.0,True,ok,855.37918871252,70.14432989690738,0.18259295765811456,256.7342693637454,156.18621598621755,62,1
106,ref,959325.0,63,0,0.0,True,ok,781.2610229276904,76.79891641740497,0.3052655674933065,407.3206604997325,238.49208952442257,62,1
106,ref,1009347.2222222221,63,0,0.0,True,ok,853.4832451499108,70.3001498166039,0.2165637132397322,313.8976114499331,184.83350075756132,62,1
106,ref,1063613.8888888888,63,0,0.0,True,ok,901.8077601410952,66.5330269398131,0.3887980030919693,639.6558237671691,350.62105631569943,62,1
106,ref,1121008.3333333335,63,0,0.0,True,ok,873.985890652552,68.6509938452229,0.41901091839909604,706.5333091972483,366.20963071017775,62,1
106,ref,1177350.0,63,0,0.0,True,ok,924.911816578484,64.87104924441049,0.34605953923083743,595.0412372887154,320.074557074307,62,1
106,ref,1236627.7777777778,63,0,0.0,True,ok,948.6331569664919,63.24889611898664,0.32717148609910834,581.8638685545276,310.3657197276159,62,1
106,ref,1297461.1111111112,63,0,0.0,True,ok,1054.7178130511431,56.88725387734644,0.05247257593426881,61.981621677107746,55.34376053455204,62,1
106,ref,1364902.7777777778,63,0,0.0,True,ok,1026.0582010582023,58.47621503158431,0.07948750590684069,53.33954003615612,81.55880731737618,62,1
106,ref,1430355.5555555555,63,0,0.0,True,ok,868.8712522045872,69.05511011874543,0.3922021132697851,663.8543954086892,340.77314127400354,62,1
106,ref,1485597.2222222222,63,0,0.0,True,ok,859.0828924162262,69.84192157667826,0.4134525546130504,681.1481583474191,355.19001649385706,62,1
106,ref,1540994.4444444445,63,0,0.0,True,ok,925.0,64.86486486486487,0.36363466118228027,550.9407345178265,336.36206159360927,62,1
106,ref,1600513.888888889,63,0,0.0,True,ok,933.8183421516746,64.2523254166864,0.3824075055193747,509.04026191612076,357.09914283045987,62,1
106,ref,1659825.0,63,0,0.0,True,ok,877.8659611992937,68.34756403817184,0.44778246607288336,614.9666579922437,393.09298498726184,62,1
106,ref,1716322.2222222222,63,0,0.0,True,ok,844.8853615520278,71.01555161256657,0.3887069762274164,536.7050584752601,328.4128341476962,62,1
106,det,969.8996655518395,63,0,0.0,True,ok,884.4295800817541,67.84033613445378,0.11344537815126048,48.30456798959698,100.3344481605351,62,1
106,det,57469.34225195095,63,0,0.0,True,ok,855.2317247969421,70.1564245810056,0.285652590138956,384.35339699068334,244.29915735725334,62,1
106,det,111817.16833890746,63,0,0.0,True,ok,806.0377625595015,74.43819978046105,0.4417576525956476,623.9627839399847,356.07334989173336,62,1
106,det,163868.4503901895,63,0,0.0,True,ok,987.5953354214226,60.753628382010376,0.2319502564925259,341.379958234149,229.07299136182112,62,1
106,det,227235.22853957635,63,0,0.0,True,ok,963.8831377961814,62.24821002386634,0.11653024258250931,123.92372044959416,112.32153586857926,62,1
106,det,289007.8037904125,63,0,0.0,True,ok,1019.6244978853676,58.84519264144393,0.05965491313410887,66.1664797042864,60.825610850760974,62,1
106,det,354347.8260869565,63,0,0.0,True,ok,990.6035992992518,60.56913183279741,0.06226259595262285,57.737481595276925,61.67755165238322,62,1
106,det,417736.900780379,63,0,0.0,True,ok,885.3143635752338,67.77253647811308,0.17348105641216058,192.63120998998806,153.58527104989116,62,1
106,det,474515.050167224,63,0,0.0,True,ok,909.380474597866,65.97898423817863,0.062498791081372705,44.75014597466545,56.835180295371586,62,1
106,det,532820.5128205129,63,0,0.0,True,ok,955.0353028613886,62.82490272373549,0.0666626942612069,45.37294137270935,63.66522640330788,62,1
106,det,593968.78483835,63,0,0.0,True,ok,928.6687547557115,64.60861280487804,0.07117154320702891,45.68115509525303,66.09478840411386,62,1
106,det,653411.3712374582,63,0,0.0,True,ok,898.9400293748116,66.7452755905512,0.07796819645264713,47.67802307470708,70.0887328094437,62,1
106,det,710891.861761427,63,0,0.0,True,ok,741.9794376316122,80.86477462437388,0.3361519309958733,444.24646810697755,249.4178207190986,62,1
106,det,758550.7246376812,63,0,0.0,True,ok,698.2711330537411,85.92650785605684,0.34293008524270746,472.04143373910944,239.45817918064137,62,1
106,det,803600.8918617615,63,0,0.0,True,ok,771.3542496151169,77.78527185134227,0.3839241631123823,574.8853137010977,296.1415347466634,62,1
106,det,853299.8885172798,63,0,0.0,True,ok,787.988179292528,76.14327419717036,0.3853707231882818,566.9748546244186,303.667574517779,62,1
106,det,903422.519509476,63,0,0.0,True,ok,858.5939020721634,69.88169826875512,0.18404768876845523,256.8047549929952,158.02222326707104,62,1
106,det,958394.6488294314,63,0,0.0,True,ok,782.8564350303477,76.64240506329118,0.30674397019471134,405.6426520892004,240.13649097368693,62,1
106,det,1008550.7246376812,63,0,0.0,True,ok,846.2069331634539,70.90464240903397,0.20630317032104484,296.2947644590567,174.57517305926902,62,1
106,det,1063121.5161649943,63,0,0.0,True,ok,894.1621985100247,67.10191965169206,0.3948533639991487,639.8009756861511,353.06295204255787,62,1
106,det,1120423.6343366778,63,0,0.0,True,ok,875.0508750508732,68.56744186046527,0.413333969087824,688.3666671124294,361.68825133855097,62,1
106,det,1176075.808249721,63,0,0.0,True,ok,924.4217939870136,64.90543644716676,0.346357390876816,595.254216139685,320.18032063500755,62,1
106,det,1235618.7290969898,63,0,0.0,True,ok,946.7183380226885,63.37682242990636,0.32679872510807306,584.16066901701,309.38634590224837,62,1
106,det,1296387.9598662206,63,0,0.0,True,ok,1056.431491214102,56.79497487437175,0.05081167481955189,60.46779460419383,53.67905340070524,62,1
106,det,1363913.0434782607,63,0,0.0,True,ok,1028.6492895188571,58.32891794254244,0.07596940941879131,53.6523726229676,78.14587902380686,62,1
106,det,1429542.9208472685,63,0,0.0,True,ok,857.0012917838998,70.01156308073514,0.39591628419604147,652.6309642114159,339.3007669942891,62,1
106,det,1484013.3779264214,63,0,0.0,True,ok,856.8243350852059,70.02602230483261,0.4212716949360256,693.9786693784715,360.95583990377787,62,1
106,det,1539208.4726867336,63,0,0.0,True,ok,897.8782891826335,66.82420181316542,0.38240057983205145,558.1108308889023,343.3491784020494,62,1
106,det,1596923.076923077,63,0,0.0,True,ok,923.8909238909208,64.94273127753326,0.369940682493899,466.7029727827531,341.7848389341261,62,1
106,det,1656399.1081382385,63,0,0.0,True,ok,877.7052255313149,68.3600806451611,0.47123810141805494,645.0680204894408,413.60814408408254,62,1
106,det,1712675.585284281,63,0,0.0,True,ok,824.7951726212558,72.74533361939531,0.4052197259435896,501.5363653237358,334.22327380918097,62,1
107,ref,263.8888888888889,63,0,0.0,True,ok,845.7231040564375,70.9452061936291,0.060554071452282705,48.6296687567692,51.21197727187984,62,1
107,ref,54377.77777777778,63,0,0.0,True,ok,849.294532627866,70.64686948395804,0.03361209296028623,32.02518237035397,28.54656678135068,62,1
107,ref,108713.88888888889,63,0,0.0,True,ok,850.9700176366842,70.5077720207254,0.02918548761328557,24.87523627083784,24.83597490901285,62,1
107,ref,163163.8888888889,63,0,0.0,True,ok,850.7936507936504,70.52238805970153,0.028399030734865372,24.133737298351946,24.161715037917194,62,1
107,ref,217619.44444444444,63,0,0.0,True,ok,848.4567901234564,70.71662422699167,0.041302535670753884,48.547705704706786,35.0434168391674,62,1
107,ref,271933.3333333333,63,0,0.0,True,ok,850.8818342151676,70.51507928282723,0.028362148444963518,24.36979478063192,24.132836891133422,62,1
107,ref,326422.2222222222,63,0,0.0,True,ok,850.4409171075843,70.5516383243467,0.028300229127334927,23.6729634714786,24.067672813405483,62,1
107,ref,380897.22222222225,63,0,0.0,True,ok,850.4850088183414,70.54798071439687,0.027555345487777768,24.089864778089453,23.435408250165118,62,1
107,ref,435372.2222222222,63,0,0.0,True,ok,850.4850088183432,70.54798071439672,0.028068814929508485,24.686908450129035,23.872106312843467,62,1
107,ref,489838.8888888889,63,0,0.0,True,ok,849.4268077601408,70.63586815468469,0.03534390004009397,38.03628871564184,30.022056184850534,62,1
107,ref,544227.7777777778,63,0,0.0,True,ok,848.1481481481487,70.74235807860258,0.04602100769033563,55.427720306830246,39.032632448469876,62,1
107,ref,598530.5555555556,63,0,0.0,True,ok,848.2363315696629,70.73500363863205,0.04252036812526469,50.99200123123597,36.06732107556614,62,1
107,ref,652827.7777777778,63,0,0.0,True,ok,850.9259259259265,70.51142546245914,0.029156605089299133,24.39276469234111,24.810111182468447,62,1
107,ref,707277.7777777779,63,0,0.0,True,ok,847.1781305114624,70.82335796814834,0.045435083307022964,41.80681329158107,38.49160893567627,62,1
107,ref,761486.1111111111,63,0,0.0,True,ok,846.3403880070537,70.89346183902066,0.03678879667292152,31.93178025421941,31.13584445047301,62,1
107,ref,815638.8888888889,63,0,0.0,True,ok,844.0035273368611,71.08975028732627,0.05257675119956132,48.06464475751717,44.374963468342294,62,1
107,ref,869641.6666666666,63,0,0.0,True,ok,841.0934744268094,71.33570979240918,0.0547708014053365,51.12849361579404,46.067363651155254,62,1
107,ref,923452.7777777778,63,0,0.0,True,ok,844.7971781305118,71.02296450939454,0.05006715188470919,46.23143604748512,42.296588629234066,62,1
107,ref,977505.5555555556,63,0,0.0,True,ok,837.4779541446192,71.64367695061613,0.06945426164078267,73.29384866206945,58.16641294554777,62,1
107,ref,1031111.1111111111,63,0,0.0,True,ok,840.6966490299822,71.3693816541669,0.052257024732548465,52.96373578070636,43.9323055809304,62,1
107,ref,1084911.111111111,63,0,0.0,True,ok,839.6825396825434,71.455576559546,0.050967586539451146,53.37685835983258,42.79659250693615,62,1
107,ref,1138647.222222222,63,0,0.0,True,ok,832.0546737213413,72.11064596470767,0.06381724637645027,62.69930388832887,53.09943811155177,62,1
107,ref,1191941.6666666665,63,0,0.0,True,ok,845.7671957671982,70.94150766343427,0.05152571406802343,60.04072360183484,43.57875869721465,62,1
107,ref,1246100.0,63,0,0.0,True,ok,849.1622574955912,70.65787424061475,0.032151253647536224,30.970223106019255,27.30163112865522,62,1
107,ref,1300458.3333333333,63,0,0.0,True,ok,851.1022927689603,70.49681396674085,0.028768140750662956,24.241787829692104,24.4846305515894,62,1
107,ref,1354908.3333333333,63,0,0.0,True,ok,842.3721340388053,71.22742737503233,0.05093772423582738,50.63318707737694,42.908519467614084,62,1
107,ref,1408822.2222222222,63,0,0.0,True,ok,828.3950617283967,72.42921013412803,0.07286379396563263,76.4959334704984,60.360007099925426,62,1
107,ref,1461891.6666666667,63,0,0.0,True,ok,844.223985890651,71.07118608659333,0.04362038908556412,45.130789182251014,36.82537873991599,62,1
107,ref,1515969.4444444445,63,0,0.0,True,ok,840.3439153439128,71.39933889501044,0.04877969172965878,54.09136848855272,40.99171713737054,62,1
107,ref,1569802.7777777778,63,0,0.0,True,ok,833.2892416225753,72.00380972538227,0.06659620315366982,69.62253150853056,55.49389962086448,62,1
107,ref,1623197.2222222222,63,0,0.0,True,ok,850.7495590828928,70.52604301632545,0.028694304899655746,24.459001042168747,24.411667241572218,62,1
107,ref,1677688.8888888888,63,0,0.0,True,ok,841.8871252204639,71.26846129674198,0.052848967848281705,51.80796380384836,44.49286561265861,62,1
107,ref,1731575.0,63,0,0.0,True,ok,833.2892416225753,72.00380972538227,0.061727279037121933,66.87728081316155,51.43667753626843,62,1
107,det,746.9342251950948,63,0,0.0,True,ok,851.161720726938,70.4918918918919,0.029112902414250335,25.524273683925195,24.779788114268744,62,1
107,det,55195.09476031215,63,0,0.0,True,ok,849.3921537399799,70.63874999999999,0.03843639357180221,44.57060604921389,32.6475711179506,62,1
107,det,109542.92084726867,63,0,0.0,True,ok,850.9847640282425,70.50655021834059,0.029481851319774675,25.952628550609237,25.088606288474182,62,1
107,det,164002.22965440355,63,0,0.0,True,ok,850.9847640282427,70.50655021834058,0.02957559353191751,26.601067481383232,25.168379482754045,62,1
107,det,218483.83500557413,63,0,0.0,True,ok,848.330413547805,70.72715894868584,0.04187163325407957,49.066289385113954,35.52097995435535,62,1
107,det,272798.21627647715,63,0,0.0,True,ok,851.1617207269375,70.49189189189195,0.02939664450985635,25.758804862829365,25.02129852460741,62,1
107,det,327302.1181716834,63,0,0.0,True,ok,850.6308506308502,70.53588516746414,0.02974058663417959,25.287567423990772,25.298260506892678,62,1
107,det,381761.4269788183,63,0,0.0,True,ok,850.807807329546,70.52121464226293,0.02851647467325207,25.75880486283383,24.262039289518125,62,1
107,det,436243.03232998884,63,0,0.0,True,ok,850.6308506308502,70.53588516746414,0.028985793544350383,26.10665143722979,24.65621021884097,62,1
107,det,490680.04459308804,63,0,0.0,True,ok,849.9230238360673,70.5946283572767,0.03562819017804578,37.379036383960326,30.281219129931138,62,1
107,det,545061.3154960981,63,0,0.0,True,ok,848.6843269451961,70.69766472060054,0.045778171405566746,54.72515634038933,38.851216588115236,62,1
107,det,599353.4002229654,63,0,0.0,True,ok,848.684326945198,70.69766472060037,0.0414383568321454,49.16831962500656,35.168083977804265,62,1
107,det,653645.4849498328,63,0,0.0,True,ok,851.1617207269384,70.49189189189187,0.030505232244101108,26.788797880331067,25.96488596806398,62,1
107,det,708093.6454849498,63,0,0.0,True,ok,847.4456300543259,70.80100229693045,0.04662986647275832,45.79072866380595,39.51627657235576,62,1
107,det,762296.5440356744,63,0,0.0,True,ok,846.5608465608472,70.87499999999996,0.03716253599201003,34.73841169699365,31.460347929743968,62,1
107,det,816454.8494983277,63,0,0.0,True,ok,844.083452779105,71.08301886792452,0.05580487140293155,55.39866606553816,47.103968535680394,62,1
107,det,870468.227424749,63,0,0.0,True,ok,840.8982322025815,71.3522727272726,0.05869930961028722,58.23872942610639,49.36014568280253,62,1
107,det,924280.9364548494,63,0,0.0,True,ok,844.7912795738879,71.02346041055722,0.05178914127794515,50.55531312080588,43.75101492822814,62,1
107,det,978327.7591973244,63,0,0.0,True,ok,837.7130116260563,71.6235741444866,0.07158022919183439,77.41895525802936,59.963689369174936,62,1
107,det,1031928.6510590857,63,0,0.0,True,ok,840.8982322025815,71.3522727272726,0.05542024162142265,59.8178531765483,46.60278320769424,62,1
107,det,1085730.2118171684,63,0,0.0,True,ok,839.8364920104034,71.44247787610634,0.05565833620101142,62.71352521014748,46.743901826193074,62,1
107,det,1139476.0312151616,63,0,0.0,True,ok,832.7582240625735,72.04972375690593,0.0692132743636674,73.98992077115325,57.63792344064331,62,1
107,det,1192764.7714604237,63,0,0.0,True,ok,846.5608465608453,70.8750000000001,0.055006775721835495,67.2333862507559,46.56658262165961,62,1
107,det,1246923.076923077,63,0,0.0,True,ok,849.5691104386711,70.62403665902974,0.03965911097904276,47.36164251946481,33.693155635253895,62,1
107,det,1301270.9030100333,63,0,0.0,True,ok,851.338677425636,70.47723965911436,0.028154631411167082,24.56376647856915,23.96912666898925,62,1
107,det,1355719.0635451504,63,0,0.0,True,ok,842.8447558882366,71.18748687801785,0.05147724216500081,53.46523437363037,43.38732360635975,62,1
107,det,1409620.9587513935,63,0,0.0,True,ok,829.5730034860464,72.32636518771335,0.07692028982693372,84.41731111042404,63.810995860746594,62,1
107,det,1462731.32664437,63,0,0.0,True,ok,844.9682362725855,71.00858638743443,0.04982822636914744,55.97462609501047,42.10326855172965,62,1
107,det,1516811.5942028984,63,0,0.0,True,ok,841.0751889012791,71.33726067746659,0.05839961195142939,71.76187283116889,49.11846465380987,62,1
107,det,1570646.5997770345,63,0,0.0,True,ok,833.9969209534456,71.94271164863119,0.07157778356465319,78.14058562203319,59.69565110159291,62,1
107,det,1624080.2675585286,63,0,0.0,True,ok,850.8078073295432,70.52121464226317,0.030122142438638068,25.952628550590486,25.628153960285832,62,1
107,det,1678539.5763656634,63,0,0.0,True,ok,841.7830156960583,71.27727559386175,0.056231947085221154,65.14365791655504,47.33509799585864,62,1
107,det,1732430.3232998885,63,0,0.0,True,ok,833.9969209534419,71.94271164863152,0.07056400581322672,83.0165437618297,58.850163578371856,62,1
108,ref,244.44444444444443,63,0,0.0,True,ok,1037.1252204585537,57.85222345038687,0.1354611197852472,222.53590092458884,140.49014372083704,62,1
108,ref,66769.44444444445,63,0,0.0,True,ok,1084.700176366843,55.314824600626,0.07446280636852887,70.27372238147021,80.76981920071333,62,1
108,ref,136136.11111111112,63,0,0.0,True,ok,1067.5044091710754,56.20585684193138,0.060188431468001236,71.98316515209216,64.25141597318242,62,1
108,ref,204455.55555555556,63,0,0.0,True,ok,1074.8236331569663,55.823111949788746,0.0898097376910293,129.06618244303988,96.52962855794624,62,1
108,ref,273200.0,63,0,0.0,True,ok,1060.3615520282192,56.58447336687593,0.09961479118664981,112.30540938928978,105.62769458764296,62,1
108,ref,340952.7777777778,63,0,0.0,True,ok,1080.6437389770724,55.522461136725276,0.05412797489430574,65.43630183447043,58.49305717303967,62,1
108,ref,410175.0,63,0,0.0,True,ok,1071.075837742504,56.01844228552612,0.054773486053584904,62.304053652648676,58.666557460920814,62,1
108,ref,478683.3333333333,63,0,0.0,True,ok,1062.9188712522052,56.448334508648905,0.14713286276745216,242.24532131483267,156.39029641688586,62,1
108,ref,546675.0,63,0,0.0,True,ok,1075.9700176366846,55.76363561857147,0.12300771394557415,182.74996792500787,132.35261214346767,62,1
108,ref,615938.8888888889,63,0,0.0,True,ok,1076.410934744268,55.740793839347894,0.07635728147872553,94.18845763451016,82.19181273104613,62,1
108,ref,684838.8888888889,63,0,0.0,True,ok,1059.6119929453255,56.624500665779,0.14467533084332365,234.2308646804208,153.29971564491848,62,1
108,ref,752744.4444444444,63,0,0.0,True,ok,1060.449735449736,56.57976799301482,0.07083058837441009,73.19189820305246,75.11227870339232,62,1
108,ref,820530.5555555556,63,0,0.0,True,ok,1079.056437389768,55.604135169370466,0.08527203262020733,140.24916312716135,92.01333572814501,62,1
108,ref,889616.6666666666,63,0,0.0,True,ok,1074.9118165784841,55.81853234341027,0.11740580804594193,190.2942919867206,126.20089040352825,62,1
108,ref,958830.5555555555,63,0,0.0,True,ok,1070.855379188714,56.02997488368255,0.05274446244401073,63.73774391989999,56.481691330586,62,1
108,ref,1027516.6666666666,63,0,0.0,True,ok,969.4003527336884,61.89393250250144,0.07216235045276004,49.794230111999816,69.95420798299762,62,1
108,ref,1089527.7777777778,63,0,0.0,True,ok,976.32275132275,61.45508738653307,0.1552202790134681,173.98543874489118,151.5450898675141,62,1
108,ref,1152105.5555555555,63,0,0.0,True,ok,1112.389770723107,53.937928574259644,0.12453193321809436,180.9483595976743,138.52804864018125,62,1
108,ref,1223400.0,63,0,0.0,True,ok,992.7248677248652,60.43970686209209,0.10728142723286646,149.54464269675,106.50094065908212,62,1
108,ref,1286908.3333333333,63,0,0.0,True,ok,921.9135802469127,65.0820220957483,0.043967822864981874,45.63809290157129,40.53453299311751,62,1
108,ref,1345933.3333333335,63,0,0.0,True,ok,923.9417989417977,64.9391553328562,0.10385244340126368,158.05602011887822,95.95361338066479,62,1
108,ref,1405097.2222222222,63,0,0.0,True,ok,978.439153439151,61.32215763147237,0.13950211873686053,225.57920272605367,136.49433495986173,62,1
108,ref,1467350.0,63,0,0.0,True,ok,1010.7583774250437,59.36136799860411,0.09481681907777015,154.55024289427195,95.83689420365089,62,1
108,ref,1532052.7777777778,63,0,0.0,True,ok,1057.583774250444,56.733094305011086,0.08654864245480108,112.6810017886003,91.53243994360075,62,1
108,ref,1599744.4444444445,63,0,0.0,True,ok,982.3633156966507,61.07719928186704,0.10996343975518313,179.93068048830096,108.0240492833106,62,1
108,ref,1662627.7777777778,63,0,0.0,True,ok,912.2134038800714,65.77408284595673,0.09730260869068086,55.87163667678708,88.7607438801366,62,1
108,ref,1721230.5555555555,63,0,0.0,True,ok,834.6560846560834,71.88589540412055,0.06804440795758113,91.40698527679935,56.793679128615906,62,1
108,det,1170.5685618729096,63,5,0.07936507936507936,True,ok,1046.0154538115557,57.36052921719956,0.14997102470614634,256.87589848998,156.8720094665837,52,6
108,det,74347.82608695651,63,0,0.0,True,ok,1063.686715860629,56.407586092164365,0.11632338843524802,152.12783365594336,123.73164302246923,62,1
108,det,142352.28539576367,63,0,0.0,True,ok,1069.8802003149826,56.081045319219335,0.07269953135028856,101.95956370759245,77.77978916385209,62,1
108,det,210813.8238573021,63,0,0.0,True,ok,1055.1927943232286,56.86164682206946,0.1203888868347542,163.2510123289438,127.03348590462723,62,1
108,det,278372.3522853958,63,0,0.0,True,ok,1060.5014952841032,56.57700650759224,0.09970114162532767,114.25334088584502,105.73320977519214,62,1
108,det,346231.884057971,63,0,0.0,True,ok,1084.3906496080408,55.330613577023506,0.05412397499520283,64.71142034209602,58.69153240441735,62,1
108,det,415674.4704570792,63,1,0.015873015873015872,True,ok,1049.7356780666732,57.15724563206581,0.11265839623520545,131.34159620978284,118.26153796186733,60,2
108,det,483846.1538461538,63,0,0.0,True,ok,1045.9910459910466,57.36186770428012,0.16047241795660597,231.14513752612834,167.85271231114268,62,1
108,det,551036.7892976588,63,0,0.0,True,ok,1061.386278777583,56.52984328109371,0.15994183357515934,255.93292249081628,169.76006755920184,62,1
108,det,618907.4693422519,63,0,0.0,True,ok,1081.7362991276027,55.466383117945405,0.07408533678435796,94.34159126994605,80.14079803273343,62,1
108,det,688149.386845039,63,0,0.0,True,ok,1058.9088849958423,56.66209893048124,0.14360237428034647,233.00224047051205,152.0618300319573,62,1
108,det,755919.7324414715,63,0,0.0,True,ok,1040.1514749340824,57.683906090507044,0.12162014797654767,116.58067327996496,126.50337629950742,62,1
108,det,822519.5094760312,63,0,0.0,True,ok,1064.9254127515014,56.34197407776661,0.11148671765540855,161.36136929911066,118.72503881549605,62,1
108,det,890680.0445930881,63,0,0.0,True,ok,1058.0241015023619,56.70948319116912,0.13091955866891095,160.95711786888913,138.51604842976025,62,1
108,det,958829.4314381271,63,0,0.0,True,ok,1070.9419405071567,56.02544613350965,0.05112987311975369,58.16984858659144,54.757125536753726,62,1
108,det,1026945.3734671127,63,0,0.0,True,ok,962.9983543027007,62.305402425578926,0.10500446041695294,127.57423798097044,101.11912257596876,62,1
108,det,1088550.724637681,63,0,0.0,True,ok,972.9079294296698,61.67078937795554,0.1509994901118836,170.7413513102796,146.90860126968857,62,1
108,det,1151003.3444816053,63,0,0.0,True,ok,1091.2919608571767,54.98070374574355,0.14702488440626585,190.37544227073758,160.4470743985136,62,1
108,det,1220903.0100334447,63,2,0.031746031746031744,True,ok,980.682420454343,61.18188594856472,0.15347282602190346,190.49069774491298,150.50810249712856,59,2
108,det,1286878.4838350054,63,0,0.0,True,ok,921.9444002052732,65.07984644913604,0.04186780927134896,45.240206983834916,38.59979230658259,62,1
108,det,1345897.4358974358,63,0,0.0,True,ok,908.3187344056917,66.05610753945057,0.07777646425242689,83.66596599556853,70.64581957631391,62,1
108,det,1404147.1571906353,63,0,0.0,True,ok,976.9779334996738,61.413874298134324,0.1389460528791256,221.3004688653525,135.74722760978452,62,1
108,det,1466744.7045707915,63,0,0.0,True,ok,1001.2210012210038,59.92682926829253,0.11046067569459879,189.9221291142629,110.5955483144948,62,1
108,det,1530992.1962095876,63,0,0.0,True,ok,1058.9088849958387,56.662098930481434,0.08697087067425656,113.5140571533077,92.09422769279429,62,1
108,det,1598651.0590858415,63,0,0.0,True,ok,983.5253313514219,61.005037783375094,0.16495794037531664,222.0690796680735,162.2403129666814,62,1
108,det,1661571.906354515,63,1,0.015873015873015872,True,ok,903.0100334448094,66.44444444444493,0.17613307432145756,246.63478509651893,159.04993333375648,60,2
108,det,1720089.1861761427,63,2,0.031746031746031744,True,ok,859.5134967194801,69.80693174569454,0.1832876457882507,221.47562853419043,157.53820533694088,58,3
109,ref,308.33333333333337,63,0,0.0,True,ok,643.8712522045854,93.18633157570365,0.054532918405258604,40.27082500860572,35.11217845996434,62,1
109,ref,41550.0,63,0,0.0,True,ok,695.9876543209876,86.20842572062084,0.05279175015514033,54.45253578964783,36.74240635797575,62,1
109,ref,86102.77777777778,63,0,0.0,True,ok,708.9506172839509,84.63212886373528,0.052973172721919114,55.61824420109324,37.55536350069391,62,1
109,ref,131433.33333333334,63,0,0.0,True,ok,696.8253968253969,86.10478359908883,0.03503744972485622,23.657186752986085,24.414984808272827,62,1
109,ref,176027.77777777778,63,0,0.0,True,ok,701.8518518518517,85.48812664907653,0.0333867354762685,23.543810895043993,23.43254212130696,62,1
109,ref,220972.22222222222,63,0,0.0,True,ok,691.0493827160491,86.82447521214831,0.05173140794037593,44.09021019236063,35.748957524228906,62,1
109,ref,265205.55555555556,63,0,0.0,True,ok,719.9294532627868,83.34149926506612,0.0354546618827822,27.049135196070452,25.524855344888355,62,1
109,ref,311272.22222222225,63,0,0.0,True,ok,684.3915343915347,87.66911480479315,0.057164894208114554,26.517090962282477,39.123169660421276,62,1
109,ref,355044.44444444444,63,0,0.0,True,ok,700.1763668430337,85.69269521410577,0.037931445864549634,23.968152239672342,26.55870195454358,62,1
109,ref,399880.5555555555,63,0,0.0,True,ok,703.924162257496,85.2364547447541,0.07144863593619223,79.26682025480417,50.294421195824945,62,1
109,ref,444894.44444444444,63,0,0.0,True,ok,713.3156966490297,84.11422920014837,0.035020777738514544,29.052301811413663,24.980870469739333,62,1
109,ref,490525.0,63,0,0.0,True,ok,713.3156966490297,84.11422920014837,0.06362430303390072,67.241954804001,45.38421404243587,62,1
109,ref,536161.1111111111,63,0,0.0,True,ok,723.3686067019404,82.94526392783123,0.03535407735065264,24.782506741287417,25.57402967437423,62,1
109,ref,582433.3333333333,63,0,0.0,True,ok,720.7671957671982,83.24463204257633,0.06056455776444684,67.22159275750778,43.65294646276084,62,1
109,ref,628583.3333333334,63,0,0.0,True,ok,721.208112874778,83.1937396833162,0.042902017522623424,43.553457084995635,30.941283096011894,62,1
109,ref,674780.5555555556,63,0,0.0,True,ok,726.0582010582004,82.63800327928591,0.04876481225695612,56.682125939609804,35.40609186222645,62,1
109,ref,721216.6666666667,63,0,0.0,True,ok,720.1499118165774,83.31598604053157,0.034673274166381066,26.088890873380223,24.969955333311336,62,1
109,ref,767288.8888888889,63,0,0.0,True,ok,721.9576719576726,83.10736533528758,0.030056104238529946,23.04157066031547,21.699235044166215,62,1
109,ref,813544.4444444445,63,0,0.0,True,ok,723.2363315696647,82.960434066939,0.038834543260914255,33.89792170587356,28.086552606207068,62,1
109,ref,859825.0,63,0,0.0,True,ok,722.3985890652559,83.05664062499997,0.032073920750929574,24.346803198084704,23.17015509626236,62,1
109,ref,906022.2222222222,63,0,0.0,True,ok,713.5802469135795,84.08304498269905,0.06235476681467469,70.48150376912501,44.495129899854234,62,1
109,ref,951705.5555555555,63,0,0.0,True,ok,722.5749559082897,83.03636807420058,0.03415117518307756,25.52466186262953,24.676783902128545,62,1
109,ref,997952.7777777778,63,0,0.0,True,ok,723.2363315696647,82.960434066939,0.039856504007012135,37.279485722805155,28.825671747223097,62,1
109,ref,1044205.5555555555,63,0,0.0,True,ok,719.2680776014125,83.4181327775392,0.06326041102167401,66.0486964795675,45.50119422383467,62,1
109,ref,1090275.0,63,0,0.0,True,ok,717.9012345679008,83.57695614789343,0.07154509181896715,86.15156871302763,51.362309744110334,62,1
109,ref,1136225.0,63,0,0.0,True,ok,718.0335097001785,83.56155971753122,0.04986689889708865,51.92553754771396,35.80610443294052,62,1
109,ref,1182150.0,63,0,0.0,True,ok,718.1657848324523,83.54616895874254,0.03046224219456452,23.92657692261583,21.876940073415675,62,1
109,ref,1228116.6666666665,63,0,0.0,True,ok,717.7689594356306,83.59235825296342,0.033244231482474684,24.400416524396658,23.861677438413086,62,1
109,ref,1274072.2222222222,63,0,0.0,True,ok,715.9171075837738,83.80858532980236,0.04170312355464377,39.35018269003927,29.855979592449316,62,1
109,ref,1319908.3333333333,63,0,0.0,True,ok,713.4920634920635,84.09343715239154,0.030733711465634573,24.633918653543713,21.928259212385303,62,1
109,ref,1365605.5555555555,63,0,0.0,True,ok,714.0211640211664,84.0311226380138,0.03245441464863288,23.798800708727853,23.173138925042444,62,1
109,ref,1411291.6666666667,63,0,0.0,True,ok,714.3738977072302,83.98963090976433,0.042724233668485184,41.38344603505477,30.521077332310234,62,1
109,ref,1457122.2222222222,63,0,0.0,True,ok,678.306878306877,88.45553822152903,0.04749534203502855,24.31099529499135,32.21641718989761,62,1
109,ref,1500536.111111111,63,0,0.0,True,ok,733.6860670194045,81.77884615384569,0.043813554358345254,43.46764865379259,32.14539437931522,62,1
109,ref,1547480.5555555555,63,0,0.0,True,ok,695.5467372134048,86.26307448494443,0.059250933273162255,33.03894796800985,41.211793314997166,62,1
109,ref,1591986.111111111,63,0,0.0,True,ok,723.3686067019441,82.94526392783081,0.04958438420615412,50.66267355201045,35.86778691737959,62,1
109,ref,1638244.4444444445,63,0,0.0,True,ok,739.2416225749527,81.16426100441406,0.05542078411659859,62.83413272873814,40.96935037473051,62,1
109,ref,1685555.5555555557,63,0,0.0,True,ok,742.1957671957623,80.84120477633273,0.042751344050263256,43.00711230106735,31.729866596035123,62,1
109,ref,1733063.8888888888,63,0,0.0,True,ok,743.3421516754879,80.71653122960998,0.04011027428294438,40.24300191968608,29.815657589777864,62,1
109,det,947.603121516165,63,0,0.0,True,ok,644.4762966502096,93.09884678747942,0.054777245099199075,39.995686712804094,35.302636062232665,62,1
109,det,42218.50613154961,63,0,0.0,True,ok,696.5015660667832,86.14481707317077,0.05330815329299143,55.99252938224084,37.129212252696675,62,1
109,det,86833.89074693422,63,0,0.0,True,ok,707.8267947833168,84.76649999999997,0.05343878394043479,56.099829121760315,37.82540315367614,62,1
109,det,132107.02341137125,63,0,0.0,True,ok,697.2093928615661,86.05736040609145,0.03491708719750581,25.0085786323099,24.34452116546739,62,1
109,det,176722.40802675585,63,0,0.0,True,ok,702.3411371237455,85.42857142857146,0.03225400050798628,21.518782806461306,22.653311393568952,62,1
109,det,221672.2408026756,63,0,0.0,True,ok,691.0159084072128,86.82868117797695,0.06190921254004171,59.02508188756097,42.78025074213213,62,1
109,det,265897.43589743593,63,0,0.0,True,ok,720.2137636920236,83.30859950859963,0.03598521795029218,27.012352225281514,25.917049257257695,62,1
109,det,311962.09587513935,63,0,0.0,True,ok,683.7606837606835,87.75000000000003,0.057607372500615546,26.563362193141113,39.38965641067728,62,1
109,det,355707.9152731326,63,0,0.0,True,ok,701.1024402328758,85.57950530035326,0.03896111546257239,26.601067481378905,27.315733125004332,62,1
109,det,400579.7101449275,63,0,0.0,True,ok,703.4028773159214,85.29962264150936,0.06999994258085902,76.55973056172724,49.23816102332552,62,1
109,det,445585.2842809364,63,0,0.0,True,ok,713.3124524428877,84.11461175886872,0.03522704717670108,31.59558374455223,25.12789141393395,62,1
109,det,491237.4581939799,63,0,0.0,True,ok,713.1354957441911,84.13548387096778,0.06488022917155199,68.91190291426706,46.26839439425146,62,1
109,det,536889.6321070234,63,0,0.0,True,ok,722.8681141724625,83.00269277845771,0.036768712116320795,27.23407155773633,26.578929588074985,62,1
109,det,583121.5161649944,63,0,0.0,True,ok,721.6294172815905,83.14516920058861,0.07347429049803196,85.1502576866116,53.02120943727311,62,1
109,det,629319.9554069119,63,0,0.0,True,ok,721.6294172815905,83.14516920058861,0.04219027529289111,41.47203593169772,30.445743774558895,62,1
109,det,675529.5429208472,63,0,0.0,True,ok,725.1685512555091,82.73938506588564,0.04880486546999962,56.52699134901202,35.39175358709964,62,1
109,det,721917.502787068,63,0,0.0,True,ok,720.2137636920245,83.30859950859951,0.03411071251966588,25.366714933384745,24.567004646005223,62,1
109,det,767971.0144927537,63,0,0.0,True,ok,723.3989842685479,82.94178082191799,0.030208207331238433,24.15228399478517,21.852586499991585,62,1
109,det,814292.0847268673,63,0,0.0,True,ok,722.6911574737668,83.02301665034273,0.05165069494007384,54.61515591489383,37.327500510566395,62,1
109,det,860557.413600892,63,0,0.0,True,ok,721.6294172815886,83.14516920058881,0.032854610401926714,24.968468616706918,23.708853359355995,62,1
109,det,906711.259754738,63,0,0.0,True,ok,714.1972359363655,84.01040634291388,0.06115811405218281,68.7663039708847,43.67895601114996,62,1
109,det,952441.4715719062,63,0,0.0,True,ok,722.3372440763753,83.06369426751583,0.03463935818040302,26.41200277193072,25.021298524606767,62,1
109,det,998706.8004459309,63,0,0.0,True,ok,722.1602873776759,83.08404802744458,0.039741138870415915,36.56576208211427,28.699472267375683,62,1
109,det,1044905.2396878483,63,0,0.0,True,ok,720.2137636920263,83.3085995085993,0.06324659084131957,67.11401929250859,45.55106523051641,62,1
109,det,1090992.1962095876,63,0,0.0,True,ok,717.913326608978,83.57554843480413,0.07014530096950998,83.91716182658186,50.358246365008874,62,1
109,det,1136967.670011148,63,0,0.0,True,ok,717.2054998141987,83.65803108808252,0.07454660398930645,86.3773540883958,53.46523437360167,62,1
109,det,1182831.6610925305,63,0,0.0,True,ok,718.7981101024623,83.47267355982224,0.031126226956285055,25.8752733008392,22.373473110798013,62,1
109,det,1228862.8762541804,63,0,0.0,True,ok,717.5594132115901,83.6167694204682,0.0330521820534738,25.60268945604133,23.71690435965331,62,1
109,det,1274804.9052396878,63,0,0.0,True,ok,715.9668029233267,83.80276816608973,0.04263766464859617,40.49378419624839,30.527152442572348,62,1
109,det,1320602.0066889632,63,0,0.0,True,ok,714.3741926350631,83.98959623482774,0.03149962310289388,25.247900627191914,22.502517822438595,62,1
109,det,1366321.0702341136,63,0,0.0,True,ok,713.8433225389776,84.05205751115484,0.032707139928566324,26.37402719115432,23.347773437355045,62,1
109,det,1411973.244147157,63,0,0.0,True,ok,716.6746297181096,83.71999999999981,0.046198367155554865,49.45288441312591,33.10919767478856,62,1
109,det,1457803.790412486,63,0,0.0,True,ok,678.2750261011126,88.45969214714329,0.04798356466966624,26.412002771969558,32.546053578742296,62,1
109,det,1501248.6064659976,63,0,0.0,True,ok,733.8394294916023,81.76175548589353,0.04437834286644482,44.90665458220511,32.566577810894586,62,1
109,det,1548193.9799331103,63,0,0.0,True,ok,706.0572277963612,84.97894736842069,0.12276416100784704,119.83660608539918,86.67852319394662,62,1
109,det,1593355.629877369,63,0,0.0,True,ok,723.5759409672455,82.92149669845926,0.058813158690635296,65.05127735779435,42.555786640832366,62,1
109,det,1639643.2552954291,63,0,0.0,True,ok,740.3868273433468,81.03871892925456,0.061410012742994506,72.55361783197742,45.4671645019002,62,1
109,det,1686978.818283166,63,0,0.0,True,ok,743.3950912211762,80.71078314687,0.052768393771648985,59.54915848538718,39.227764901469946,62,1
109,det,1734526.1984392419,63,0,0.0,True,ok,742.3333510290055,80.82622169249082,0.04096285986907051,39.84504328971593,30.408097034338677,62,1
111,ref,547.2222222222223,63,0,0.0,True,ok,862.0811287477953,69.59901800327333,0.03280969356517735,35.02466844157852,28.284617662537368,62,1
111,ref,55750.0,63,0,0.0,True,ok,878.1746031746031,68.3235427022142,0.03281743140952816,32.717199960232065,28.81943480527215,62,1
111,ref,111938.88888888888,63,0,0.0,True,ok,870.2821869488541,68.94315533488698,0.03452299595803669,35.820445850101855,30.044748422386622,62,1
111,ref,167602.77777777778,63,0,0.0,True,ok,835.8024691358021,71.7872968980798,0.03525398032585456,32.11443782298322,29.46536380321423,62,1
111,ref,221108.3333333333,63,0,0.0,True,ok,861.4197530864205,69.65245431744889,0.032397561159491335,33.151760547505404,27.907899134611235,62,1
111,ref,276200.0,63,0,0.0,True,ok,861.4638447971786,69.64888934384273,0.03261969300449696,34.00239525848442,28.10068615175758,62,1
111,ref,331305.55555555556,63,0,0.0,True,ok,861.6843033509693,69.63106994831915,0.03301319500450713,34.21220411481874,28.44695193884843,62,1
111,ref,386472.22222222225,63,0,0.0,True,ok,867.5925925925914,69.15688367129145,0.032590317032273476,31.48631279253521,28.275117647444635,62,1
111,ref,441997.2222222222,63,0,0.0,True,ok,862.7865961199295,69.54210956663941,0.03252369697689009,33.03518091393471,28.061009807927043,62,1
111,ref,497194.44444444444,63,0,0.0,True,ok,859.6119929453264,69.79893311448501,0.04998647245025042,56.46213704028709,42.96897120326641,62,1
111,ref,552166.6666666666,63,0,0.0,True,ok,838.8447971781309,71.52693823915897,0.028395798082550914,29.323057421345634,23.819667483268578,62,1
111,ref,605819.4444444445,63,0,0.0,True,ok,851.2786596119921,70.48220852540537,0.05708582053641835,71.26030915378286,48.59594078909294,62,1
111,ref,660286.1111111111,63,0,0.0,True,ok,864.6825396825378,69.3896282698487,0.03319724729657774,36.06800570370582,28.705080102874103,62,1
111,ref,715608.3333333334,63,0,0.0,True,ok,862.3897707231032,69.57410910578257,0.039945993516424715,40.20587451704585,34.449016189936074,62,1
111,ref,770836.1111111111,63,0,0.0,True,ok,866.5343915343909,69.24133720042747,0.03810563032226558,37.421097131872806,33.01983918533884,62,1
111,ref,826272.2222222222,63,0,0.0,True,ok,847.9717813051151,70.75707154742092,0.03298539573111072,35.54491328186208,27.970684775164095,62,1
111,ref,880519.4444444444,63,0,0.0,True,ok,839.4179894179919,71.47809643870134,0.038604309599025874,37.42109713187211,32.40515194648398,62,1
111,ref,934275.0,63,0,0.0,True,ok,851.3668430335099,70.47490807395513,0.0352473588221169,33.916273676109824,30.008432605655003,62,1
111,ref,988763.8888888889,63,0,0.0,True,ok,860.1851851851845,69.75242195909586,0.03453288111952376,32.247857803820885,29.704672740775507,62,1
111,ref,1043822.2222222224,63,0,0.0,True,ok,869.5767195767165,68.99908731366011,0.03040468017128059,31.110551070247492,26.439202043121416,62,1
111,ref,1099466.6666666667,63,0,0.0,True,ok,878.1305114638415,68.32697328780905,0.030698081476110493,31.634187582010295,26.956921987575583,62,1
111,ref,1155686.1111111112,63,0,0.0,True,ok,886.7283950617264,67.66446223459813,0.03439183125133888,33.11795712347782,30.496213328733447,62,1
111,ref,1212405.5555555555,63,0,0.0,True,ok,869.0035273368611,69.0445989142016,0.03406270818788356,30.76864440133134,29.600613565916994,62,1
111,ref,1268022.222222222,63,0,0.0,True,ok,838.2716049382736,71.57584683357862,0.03471581923009294,30.135182617372738,29.101285502756994,62,1
111,ref,1321650.0,63,0,0.0,True,ok,832.275132275131,72.09154481881765,0.04321178582193874,33.77102130118356,35.964094760798694,62,1
111,ref,1374875.0,63,0,0.0,True,ok,795.458553791885,75.42819134194355,0.03870987552965605,35.51338785371191,30.792101606284085,62,1
111,ref,1425822.2222222222,63,0,0.0,True,ok,824.911816578484,72.73504730343677,0.035306681336676554,29.29120875607153,29.124898638795518,62,1
111,ref,1478675.0,63,0,0.0,True,ok,849.5590828924167,70.62487025119366,0.03483242566037172,32.55322205297411,29.59220359894368,62,1
111,ref,1533091.6666666667,63,0,0.0,True,ok,834.9206349206312,71.86311787072276,0.03318245575395204,31.168501853092998,27.70471702631539,62,1
111,ref,1586555.5555555557,63,0,0.0,True,ok,831.8342151675477,72.12975723523807,0.03722315395875627,30.649091114449398,30.963493059342817,62,1
111,ref,1639733.3333333333,63,0,0.0,True,ok,833.4215167548492,71.99238175854414,0.038595822252227255,32.034896096368264,32.1665887218518,62,1
111,ref,1693061.1111111112,63,0,0.0,True,ok,821.6490299823613,73.02387979608282,0.04974637215845039,31.941522384635032,40.874058429132305,62,1
111,ref,1745602.777777778,63,0,0.0,True,ok,784.7883597883573,76.45373335580675,0.050481954765566904,56.26783535118393,39.6176504793793,62,1
111,det,546.2653288740245,63,0,0.0,True,ok,862.1330360460796,69.59482758620689,0.032844860431083034,35.92978727065294,28.31663924195936,62,1
111,det,55752.50836120402,63,0,0.0,True,ok,878.0591389287041,68.33252720677147,0.03333647835832084,33.50469938893527,29.271399482222577,62,1
111,det,111939.79933110367,63,0,0.0,True,ok,870.2730441860879,68.94387962586416,0.034807150761094974,36.72985757550555,30.291725052302226,62,1
111,det,167603.12151616497,63,0,0.0,True,ok,835.7664879404012,71.79038746559388,0.03421551222963355,30.922236806485518,28.596178489242682,62,1
111,det,221103.67892976588,63,0,0.0,True,ok,861.4252092512962,69.652013147083,0.031803097449284154,30.889806554459547,27.39598987508897,62,1
111,det,276198.43924191745,63,0,0.0,True,ok,861.4252092512971,69.65201314708291,0.033052668435329516,34.44867843299566,28.47240182321747,62,1
111,det,331304.3478260869,63,0,0.0,True,ok,861.6021659499919,69.637707948244,0.034267169611769746,36.428451187530435,29.52466755847656,62,1
111,det,386465.9977703456,63,0,0.0,True,ok,867.61869370565,69.1548031817255,0.033086105482761884,32.005319152340086,28.70612361876121,62,1
111,det,441995.54069119284,63,0,0.0,True,ok,862.6639061421664,69.55200000000005,0.03342869098813001,34.96846991774328,28.837725145039673,62,1
111,det,497190.63545150496,63,0,0.0,True,ok,859.6556422643397,69.79538904899121,0.05541827858701239,65.29733507731534,47.64063587190224,62,1
111,det,552162.7647714604,63,0,0.0,True,ok,838.7747518182307,71.53291139240501,0.028914624895910512,30.5963874937525,24.252857320984575,62,1
111,det,605819.3979933109,63,0,0.0,True,ok,851.1617207269384,70.49189189189187,0.05820317147645082,72.40149914821916,49.54031158566094,62,1
111,det,660278.7068004459,63,0,0.0,True,ok,864.7873865265182,69.38121546961317,0.03247396465315074,34.5068197038135,28.083075022552762,62,1
111,det,715607.5808249721,63,0,0.0,True,ok,862.309992744774,69.58054586497035,0.0360590918958209,33.86177554238111,31.094115271068457,62,1
111,det,770836.1204013377,63,0,0.0,True,ok,866.5569535134756,69.2395344088217,0.0373440540665141,37.2985069481463,32.36074972372098,62,1
111,det,826265.3288740244,63,0,0.0,True,ok,847.9765001504131,70.75667779632721,0.032364961644346005,34.302894120690326,27.444726902674887,62,1
111,det,880512.8205128204,63,0,0.0,True,ok,839.4825786130156,71.47259696458666,0.03783558709149788,36.34581565309075,31.762316214907965,62,1
111,det,934269.7881828316,63,0,0.0,True,ok,851.3386774256342,70.47723965911452,0.034107164902787764,31.911231778288375,29.036748659077343,62,1
111,det,988762.5418060201,63,0,0.0,True,ok,860.186512360425,69.75231433861349,0.035394351500605464,33.624146111392136,30.44574377456479,62,1
111,det,1043823.8573021181,63,0,0.0,True,ok,869.5652173913069,68.9999999999998,0.030893051111651998,31.911231778327732,26.863522705784423,62,1
111,det,1099464.8829431438,63,0,0.0,True,ok,878.0591389287064,68.33252720677129,0.03149158759755205,32.502518923362224,27.651476289404485,62,1
111,det,1155685.6187290968,63,0,0.0,True,ok,900.3556829643812,66.64033018867906,0.131486318160964,162.44473838021875,118.38445378828668,62,1
111,det,1213244.1471571906,63,0,0.0,True,ok,869.3882606926094,69.01404437207403,0.0347373003263236,32.53334161297887,30.200201111859286,62,1
111,det,1268907.469342252,63,0,0.0,True,ok,837.1821415299653,71.66899175649988,0.034386818791664026,30.857342219105377,28.78803059640814,62,1
111,det,1322497.2129319955,63,0,0.0,True,ok,831.3425704730076,72.17241379310325,0.04279507648786575,31.753799975496317,35.57736889101128,62,1
111,det,1375663.3221850614,63,0,0.0,True,ok,796.1281874325341,75.36474772171604,0.03701757300446949,30.986995488522783,29.470733299199804,62,1
111,det,1426599.7770345595,63,0,0.0,True,ok,826.564739608217,72.58959537572262,0.0366464635769424,31.46843802258561,30.290674624037404,62,1
111,det,1479542.9208472685,63,0,0.0,True,ok,849.92302383607,70.59462835727648,0.03677795772907583,35.48064727420314,31.25843304361129,62,1
111,det,1533968.78483835,63,0,0.0,True,ok,834.7047477482286,71.88170447318188,0.032758499706609726,32.409874975444325,27.34367523421609,62,1
111,det,1587424.7491638795,63,0,0.0,True,ok,830.2808302808294,72.26470588235301,0.03902419126786519,33.083239852107454,32.401037926921,62,1
111,det,1640546.2653288739,63,0,0.0,True,ok,833.4660508573565,71.98853503184702,0.038790127741481266,32.34796493811456,32.33025458094478,62,1
111,det,1693890.746934225,63,0,0.0,True,ok,820.7251685512555,73.10608020698577,0.049605428057368034,30.233897302056757,40.71242330344056,62,1
111,det,1746354.5150501672,63,0,0.0,True,ok,785.5107855107857,76.38341968911915,0.04980890145670922,53.18329234312054,39.12542930868898,62,1
112,ref,344.44444444444446,63,0,0.0,True,ok,700.6172839506173,85.63876651982379,0.023984320647868693,23.64666309287805,16.803829589710475,62,1
112,ref,45191.66666666667,63,0,0.0,True,ok,697.8395061728393,85.97965501990272,0.017372031992601296,16.45625847060945,12.122890226935654,62,1
112,ref,89844.44444444445,63,0,0.0,True,ok,695.1058201058202,86.31779257849666,0.01883585216521261,16.39944074383121,13.0929104666921,62,1
112,ref,134341.66666666666,63,0,0.0,True,ok,703.968253968254,85.23111612175873,0.017427644479446152,15.2145154862521,12.268508454975187,62,1
112,ref,179397.22222222222,63,0,0.0,True,ok,710.3615520282187,84.46403078641922,0.020848557593467352,19.351415965778962,14.810013729645174,62,1
112,ref,224852.77777777778,63,0,0.0,True,ok,704.8059964726623,85.12980919612147,0.028466218645134017,17.72688166970927,20.06316159799236,62,1
112,ref,269938.8888888889,63,0,0.0,True,ok,690.9171075837738,86.8410976388003,0.022117696272849707,19.68615764610213,15.281494735253734,62,1
112,ref,314180.55555555556,63,0,0.0,True,ok,705.0264550264553,85.10318949343336,0.022819077244048896,20.09287475920803,16.088053136346648,62,1
112,ref,359313.8888888889,63,0,0.0,True,ok,693.9594356261031,86.46038503081508,0.014406112528890387,14.57533062552136,9.997257720114906,62,1
112,ref,403738.8888888889,63,0,0.0,True,ok,708.7742504409167,84.6531881804044,0.02216107168530024,19.896811661574723,15.707196972716101,62,1
112,ref,449086.1111111111,63,0,0.0,True,ok,710.7142857142848,84.42211055276394,0.015020576592044472,14.904615083152814,10.675338363631592,62,1
112,ref,494577.7777777778,63,0,0.0,True,ok,721.7813051146379,83.12767257177771,0.02026094800065502,16.223959007543737,14.623973490772594,62,1
112,ref,540755.5555555556,63,0,0.0,True,ok,692.8571428571429,86.59793814432989,0.01705076089450522,17.217596789014237,11.81374147690719,62,1
112,ref,585097.2222222221,63,0,0.0,True,ok,694.7530864197539,86.36161705908475,0.01935030027668979,16.94804298119893,13.44368084037925,62,1
112,ref,629561.1111111111,63,0,0.0,True,ok,698.2804232804226,85.92536465239637,0.01849963002082028,19.441243976262562,12.917929481469598,62,1
112,ref,674244.4444444444,63,0,0.0,True,ok,714.6825396825396,83.95335924486398,0.06256434704718927,52.764806932843065,44.71364644126503,62,1
112,ref,719955.5555555555,63,0,0.0,True,ok,690.8289241622579,86.85218279295374,0.01945383495299155,18.429070113512065,13.439271871405282,62,1
112,ref,764158.3333333333,63,0,0.0,True,ok,691.3580246913591,86.78571428571415,0.04263176083830937,49.07294694495513,29.47380996228801,62,1
112,ref,808375.0,63,0,0.0,True,ok,671.1640211640199,89.39692550256225,0.015932979045201395,14.40354700993374,10.693642285099434,62,1
112,ref,851350.0,63,0,0.0,True,ok,692.10758377425,86.69172453335038,0.02300175348354315,15.788545722291591,15.919688026065987,62,1
112,ref,895672.2222222222,63,0,0.0,True,ok,709.3474426807758,84.58478368970664,0.014401936713970461,15.78460400569893,10.215976977705322,62,1
112,ref,941052.7777777778,63,0,0.0,True,ok,705.6437389770733,85.02874281429631,0.01886520263733644,15.218604860228188,13.312112125570232,62,1
112,ref,986250.0,63,0,0.0,True,ok,710.1410934744266,84.49025207997022,0.023323519209014314,18.97802078193688,16.562989434761217,62,1
112,ref,1031694.4444444444,63,0,0.0,True,ok,711.4638447971804,84.33316807139289,0.019901895895712517,14.808279621951366,14.159479372716852,62,1
112,ref,1077222.2222222222,63,0,0.0,True,ok,711.6402116402141,84.31226765799227,0.021686013497504444,20.533990431506112,15.432639234996604,62,1
112,ref,1122794.4444444445,63,0,0.0,True,ok,723.7213403880079,82.9048373339831,0.014391350170769488,13.644808700055119,10.41532723558248,62,1
112,ref,1169105.5555555555,63,0,0.0,True,ok,727.6455026455038,82.45773495728037,0.014257848422213398,13.969301268711655,10.374659281824872,62,1
112,ref,1215677.7777777778,63,0,0.0,True,ok,726.6313932980596,82.57281553398062,0.016841044103307626,17.368725928563066,12.237231341380491,62,1
112,ref,1262169.4444444445,63,0,0.0,True,ok,722.4426807760158,83.05157155935288,0.01409020430120584,14.833470929527268,10.179364968044895,62,1
112,ref,1308427.7777777778,63,0,0.0,True,ok,733.3333333333334,81.81818181818181,0.01931446785449893,17.37947057908945,14.163943093299215,62,1
112,ref,1355350.0,63,0,0.0,True,ok,726.0582010582023,82.63800327928571,0.017307589401452467,16.852311362156605,12.566317225472584,62,1
112,ref,1401825.0,63,0,0.0,True,ok,732.2310405643731,81.94135003311865,0.014446163776084337,13.947011001994541,10.577929533925587,62,1
112,ref,1448647.222222222,63,0,0.0,True,ok,735.1410934744322,81.61698554549211,0.017841643255811744,18.170642314874073,13.116125132458173,62,1
112,ref,1495705.5555555555,63,0,0.0,True,ok,739.3298059964723,81.1545801526718,0.018021296730098037,17.27172328776885,13.323681815268241,62,1
112,ref,1543025.0,63,0,0.0,True,ok,725.3968253968254,82.71334792122538,0.014668257022668283,13.866469360333255,10.640307078348263,62,1
112,ref,1589444.4444444443,63,0,0.0,True,ok,720.7671957672019,83.24463204257592,0.016421798950154005,18.11576671255363,11.836293978755283,62,1
112,ref,1635572.2222222222,63,0,0.0,True,ok,725.7054673721349,82.6781699981772,0.01623906433449149,17.170549142789508,11.784777772548313,62,1
112,ref,1682013.888888889,63,0,0.0,True,ok,722.8395061728374,83.00597779675515,0.016898542237867818,13.94701100194817,12.214933926261208,62,1
112,ref,1728288.8888888888,63,0,0.0,True,ok,728.4832451499163,82.36291005931434,0.017620396058479117,19.370699892742266,12.836163301507662,62,1
112,det,345.5964325529543,63,0,0.0,True,ok,700.5715701367874,85.64435463500885,0.025436315250569677,26.221574889775873,17.81995931358591,62,1
112,det,45195.09476031215,63,0,0.0,True,ok,697.7402629576542,85.99188435201624,0.018292903080016142,17.909015137178802,12.763695005309346,62,1
112,det,89843.92419175028,63,0,0.0,True,ok,695.0859124772165,86.32026476578415,0.01935793753211172,17.512874183566808,13.455429673184833,62,1
112,det,134347.82608695654,63,0,0.0,True,ok,703.9337474120077,85.23529411764713,0.017032671264173856,14.158319620976187,11.98987211142672,62,1
112,det,179397.9933110368,63,0,0.0,True,ok,710.3041885650582,84.4708520179372,0.021913083724404755,21.095421118509158,15.564955153821503,62,1
112,det,224849.49832775918,63,0,0.0,True,ok,704.8185309054878,85.12829525483299,0.029171667017066794,18.460190265347215,20.560731491033092,62,1
112,det,269944.2586399108,63,0,0.0,True,ok,690.838951708517,86.85092213114753,0.02336148744135099,21.518782806445987,16.139025494334604,62,1
112,det,314180.60200668895,63,0,0.0,True,ok,704.995487604184,85.1069277108433,0.02371380606271209,21.047855283195624,16.718126268132764,62,1
112,det,359308.8071348941,63,0,0.0,True,ok,694.0241722850413,86.45232024477313,0.01552791957014808,16.51129612436053,10.776751526980716,62,1
112,det,403734.6711259755,63,0,0.0,True,ok,708.8885349754913,84.63954068896658,0.022708182062486686,20.80839521197587,16.097569914232917,62,1
112,det,449085.8416945374,63,0,0.0,True,ok,710.6581019624488,84.4287848605579,0.016897625335389275,18.186690845442726,12.008434348520328,62,1
112,det,494581.9397993311,63,0,0.0,True,ok,721.6294172815905,83.14516920058861,0.022915264961421763,20.95239966524292,16.536329300964034,62,1
112,det,540758.0824972129,63,0,0.0,True,ok,692.7854753941712,86.60689655172412,0.018920802109260962,20.46844523365999,13.108056884103393,62,1
112,det,585094.7603121516,63,0,0.0,True,ok,694.7319990798244,86.36423841059613,0.02054706507232341,19.048070931913376,14.27470359291848,62,1
112,det,629565.2173913043,63,0,0.0,True,ok,698.2711330537411,85.92650785605684,0.01972152429516322,20.80839521197889,13.770971115130505,62,1
112,det,674247.4916387959,63,0,0.0,True,ok,714.7281060324527,83.94800693240914,0.06370562548407527,54.449738606407905,45.532201045845866,62,1
112,det,719955.4069119287,63,0,0.0,True,ok,690.8389517085179,86.85092213114741,0.020691871447338056,20.022887628403897,14.294750779566437,62,1
112,det,764158.3054626533,63,0,0.0,True,ok,691.3698218046034,86.78423342718212,0.04453737091904251,51.731175256726985,30.791794195943943,62,1
112,det,808372.3522853957,63,0,0.0,True,ok,671.1967581532792,89.39256525177969,0.01691711515707792,16.018310102718676,11.354712850736403,62,1
112,det,851348.9409141584,63,0,0.0,True,ok,692.0776485993863,86.69547430324744,0.023557752215708244,17.455548746012358,16.303793759734344,62,1
112,det,895674.4704570791,63,0,0.0,True,ok,709.4194050715786,84.57620354203048,0.01579089794925419,17.224339216507854,11.202369428705918,62,1
112,det,941059.0858416945,63,0,0.0,True,ok,705.5263577002703,85.04288939051924,0.020549321127704995,17.740323637069707,14.498087688442915,62,1
112,det,986254.1806020066,63,0,0.0,True,ok,710.1272318663633,84.49190132070758,0.024359119191855808,20.419418947126644,17.29807388241537,62,1
112,det,1031694.5373467113,63,0,0.0,True,ok,711.5428854559293,84.32380004973882,0.022954402450967856,20.32101153607873,16.333041753878323,62,1
112,det,1077224.0802675586,63,0,0.0,True,ok,711.5428854559275,84.32380004973905,0.02153033617201746,20.517354372022385,15.319757524673433,62,1
112,det,1122798.216276477,63,0,0.0,True,ok,723.7528976659394,82.90122249388773,0.016437414667305517,17.340329343276068,11.89662649559898,62,1
112,det,1169108.138238573,63,0,0.0,True,ok,727.6459450372495,82.45768482490271,0.015616271299799273,16.752349694470464,11.363116487900518,62,1
112,det,1215674.4704570791,63,0,0.0,True,ok,726.7611615437689,82.55807158509876,0.016497678667899758,17.282431587945805,11.989872111458686,62,1
112,det,1262173.9130434783,63,0,0.0,True,ok,722.3372440763734,83.06369426751606,0.015222753953622624,16.389439874980756,10.995962138112484,62,1
112,det,1308428.093645485,63,0,0.0,True,ok,733.308559395517,81.82094594594582,0.020147294795951846,18.568462104444265,14.774183722536245,62,1
112,det,1355351.1705685619,63,0,0.0,True,ok,726.0533347489859,82.63855715330259,0.017763997462509267,17.85296174416576,12.897609596127376,62,1
112,det,1401828.3166109251,63,0,0.0,True,ok,732.2468192033425,81.93958434026082,0.015181810081363973,15.37987181669669,11.116832141828008,62,1
112,det,1448651.0590858415,63,0,0.0,True,ok,735.0781263824781,81.6239768897444,0.020360773249073868,22.475635619822942,14.9667590516277,62,1
112,det,1495707.9152731325,63,0,0.0,True,ok,739.325087151176,81.15509813307781,0.01853241428618277,17.796731803682402,13.701478807253777,62,1
112,det,1543021.1817168337,63,0,0.0,True,ok,725.5224646529042,82.69902439024335,0.016397323412009942,15.955615889098597,11.896626495592223,62,1
112,det,1589442.586399108,63,0,0.0,True,ok,720.7446337881136,83.24723790817562,0.0167052076190635,18.51440533143446,12.040188747756329,62,1
112,det,1635574.1360089185,63,0,0.0,True,ok,725.6994213515982,82.67885881492286,0.018032523523601872,19.669366231904558,13.08619188658696,62,1
112,det,1682017.8372352284,63,0,0.0,True,ok,722.8681141724625,83.00269277845771,0.019031273432045134,17.455548745973978,13.757100736122954,62,1
112,det,1728294.314381271,63,0,0.0,True,ok,728.3537718320324,82.37755102040819,0.017815949854532605,19.821647469404763,12.976314275319172,62,1
113,ref,472.22222222222223,63,0,0.0,True,ok,1034.1710758377426,58.01748028138989,0.08728400179890511,122.30670752210801,90.26659004379715,62,1
113,ref,66761.11111111111,63,0,0.0,True,ok,1033.3774250440915,58.06203865682469,0.05649562138420979,78.1727999927202,58.381299752280626,62,1
113,ref,132891.6666666667,63,0,0.0,True,ok,1028.4391534391532,58.34083601286175,0.09033650455935852,101.53761125515618,92.90559827367888,62,1
113,ref,198950.0,63,0,0.0,True,ok,1051.984126984127,57.03508110147114,0.07342676988698495,85.79619256529907,77.24379641682424,62,1
113,ref,266219.44444444444,63,0,0.0,True,ok,1034.6119929453264,57.992755167270396,0.06590609047810184,84.68953185637557,68.18723161678393,62,1
113,ref,332408.3333333334,63,0,0.0,True,ok,1034.7442680776012,57.98534174194649,0.09040165677055591,118.64888849686095,93.54259616805139,62,1
113,ref,398480.55555555556,63,0,0.0,True,ok,1040.873015873016,57.64391917651544,0.08922611984755927,132.55541434947173,92.87306046037618,62,1
113,ref,465119.4444444445,63,0,0.0,True,ok,1013.0952380952381,59.22444183313748,0.08630532617465704,120.16795544127122,87.43551496980136,62,1
113,ref,530011.111111111,63,0,0.0,True,ok,1026.9400352733708,58.426001459791216,0.06875731752517594,92.51669529767732,70.60964208460653,62,1
113,ref,595797.2222222222,63,0,0.0,True,ok,1019.4003527336846,58.85813148788936,0.062071043731184244,82.62316874064527,63.27524387411718,62,1
113,ref,661186.1111111111,63,0,0.0,True,ok,985.4056437389762,60.888630363774716,0.1217157057955632,124.85555174391027,119.9393434226208,62,1
113,ref,724366.6666666666,63,0,0.0,True,ok,1003.218694885363,59.80749791236312,0.12231045132589564,89.349027446824,122.70413135000474,62,1
113,ref,788686.1111111111,63,0,0.0,True,ok,1028.9682539682522,58.310836868492196,0.08491901332614601,99.90163421744295,87.37896887091121,62,1
113,ref,854558.3333333333,63,0,0.0,True,ok,1015.2557319223988,59.09841049248674,0.0788273454956113,86.45439724887011,80.02991434664665,62,1
113,ref,919558.3333333333,63,0,0.0,True,ok,989.5943562610256,60.63090358224899,0.09103910331053994,105.88928097201952,90.09178283517477,62,1
113,ref,982811.1111111111,63,0,0.0,True,ok,1017.8130511463849,58.94992202391265,0.1347274838520688,112.06134890299296,137.12739141274946,62,1
113,ref,1048061.1111111111,63,0,0.0,True,ok,1026.1022927689585,58.47370230319703,0.06793508942806525,89.42629883400483,69.70835102160198,62,1
113,ref,1113727.777777778,63,0,0.0,True,ok,987.2134038800676,60.77713264850398,0.10315343419005235,83.59650797110422,101.83445288868013,62,1
113,ref,1176966.6666666667,63,0,0.0,True,ok,1020.7231040564328,58.78185745140415,0.09506237374236703,79.95932483473379,97.03236120528162,62,1
113,ref,1242252.7777777778,63,0,0.0,True,ok,985.5379188712539,60.88045812455251,0.1253958062190694,133.54411356115185,123.58232189632469,62,1
113,ref,1305305.5555555557,63,0,0.0,True,ok,971.2522045855359,61.775921554385455,0.11371528071003292,137.93309115076516,110.44621708468254,62,1
113,ref,1367491.6666666665,63,0,0.0,True,ok,997.7513227513252,60.13522471165304,0.06389970158402229,86.28508844208017,63.75601177887319,62,1
113,ref,1431308.3333333335,63,0,0.0,True,ok,948.6331569664883,63.248896118986885,0.12130130867895313,103.561864299362,115.07044339628179,62,1
113,ref,1492080.5555555555,63,0,0.0,True,ok,976.1904761904761,61.463414634146346,0.09524017525332132,95.31670782668432,92.97255203300413,62,1
113,ref,1554477.777777778,63,0,0.0,True,ok,929.0564373897699,64.58165250818666,0.09917340041613883,98.03932110478259,92.13768607444706,62,1
113,ref,1614000.0,63,0,0.0,True,ok,1016.3580246913572,59.03431521409055,0.08176419513005567,83.32138504544714,83.10169585286206,62,1
113,ref,1678938.8888888888,63,0,0.0,True,ok,963.0952380952381,62.2991347342398,0.10981732317481319,83.74153309314983,105.76454101002841,62,1
113,ref,1740675.0,63,0,0.0,True,ok,986.1111111111111,60.845070422535215,0.1268191091010463,134.61525332487196,125.05773258575398,62,1
113,det,479.3756967670011,63,0,0.0,True,ok,655.9784820654385,91.46641489074725,0.433578395859762,402.6990496164355,284.41809797245446,62,1
113,det,42162.764771460425,63,0,0.0,True,ok,687.8306878306878,87.23076923076924,0.4248257677996609,431.4502536973917,292.2082000738408,62,1
113,det,85841.69453734672,63,0,0.0,True,ok,730.4772522163823,82.13808139534888,0.4103817145248962,401.8793571388182,299.774507185994,62,1
113,det,132229.65440356746,63,0,0.0,True,ok,718.6211534037619,83.4932282688993,0.4094790867209119,395.9295037139679,294.26033359410076,62,1
113,det,178494.98327759196,63,0,0.0,True,ok,632.2662844401974,94.89672544080605,0.4625807430696007,427.7781110195749,292.47420767420203,62,1
113,det,219364.54849498326,63,0,0.0,True,ok,727.9998584346414,82.41759844433638,0.4138377696607082,399.2244458454003,301.2738377279033,62,1
113,det,265574.13600891863,63,0,0.0,True,ok,669.7811045637133,89.58150594451783,0.4230313054248619,418.5597763086306,283.33837501249354,62,1
113,det,308662.20735785953,63,0,0.0,True,ok,667.4806674806676,89.890243902439,0.4301036063944315,419.68851327136906,287.0858422819975,62,1
113,det,351783.723522854,63,0,0.0,True,ok,638.990638990638,93.89808917197468,0.43592886169042255,423.0613936740212,278.55446188602457,62,1
113,det,393110.36789297656,63,0,0.0,True,ok,709.4194050715786,84.57620354203048,0.4213496601067687,414.1689657123467,298.9136252000557,62,1
113,det,438160.53511705686,63,0,0.0,True,ok,659.6945727380503,90.95118025751083,0.43299455435141565,422.0081862156847,285.6441575307596,62,1
113,det,480434.7826086956,63,0,0.0,True,ok,653.3241315850016,91.83802816901402,0.4234770325299424,413.44717591981583,276.6677645238181,62,1
113,det,521950.94760312146,63,0,0.0,True,ok,671.5506715506716,89.34545454545454,0.419554468449185,420.7379985640608,281.75208503913524,62,1
113,det,564983.2775919732,63,0,0.0,True,ok,746.9342251950967,80.32835820895501,0.3835896767448341,386.14594326254144,286.51625799224024,62,1
113,det,613065.7748049053,63,0,0.0,True,ok,630.6736741519334,95.13636363636388,0.4301144077078446,393.0789144543772,271.261833814789,62,1
113,det,653132.6644370123,63,0,0.0,True,ok,692.2546052980839,86.67331288343554,0.40821739548033875,386.0031574872635,282.5903719840537,62,1
113,det,697491.6387959865,63,0,0.0,True,ok,781.0868680433903,76.8160398731309,0.34413380496570894,352.6757559439686,268.7983959085205,62,1
113,det,747447.0457079152,63,0,0.0,True,ok,756.4898869246706,79.3136842105262,0.39740899735488827,403.6735314319839,300.63588747184616,62,1
113,det,795429.2084726867,63,0,0.0,True,ok,618.8175753393148,96.9591078066914,0.42072247786701744,400.1773339603337,260.35046364441627,62,1
113,det,834760.3121516166,63,0,0.0,True,ok,614.5706145706132,97.6291390728479,0.44424619999409154,437.50124015320336,273.0206601510284,62,1
113,det,873790.4124860646,63,0,0.0,True,ok,660.5793562315308,90.82935976426457,0.4002783548429787,386.5999107908409,264.41561795559113,62,1
113,det,916499.442586399,63,0,0.0,True,ok,649.6080409123891,92.3633887224189,0.4297818709360161,396.34192116756935,279.1897591984067,62,1
113,det,958026.7558528428,63,0,0.0,True,ok,802.3216718868888,74.78297309219236,0.34405128679821934,337.05722827430196,276.0398036387828,62,1
113,det,1008929.7658862876,63,0,0.0,True,ok,789.2268761833964,76.02376681614365,0.3704071118603931,409.63079741275004,292.3352478096919,62,1
113,det,1059308.8071348942,63,0,0.0,True,ok,687.1228610359036,87.32062838011858,0.4159122396484346,392.0755450058821,285.78280804708277,62,1
113,det,1103589.7435897437,63,0,0.0,True,ok,737.5555201642112,81.34980806142086,0.4048476610106294,378.89578545713835,298.597627203959,62,1
113,det,1150668.8963210701,63,0,0.0,True,ok,739.8559572472614,81.09686677828273,0.4017435276448641,342.80973001742416,297.2323422135825,62,1
113,det,1197614.2697881828,63,0,0.0,True,ok,828.5112632938719,72.41905168731311,0.3084133582794358,321.1099398855024,255.52394108480087,62,1
113,det,1250824.9721293198,63,0,0.0,True,ok,831.6964838703991,72.14170212765939,0.3252457258689397,325.22248809921837,270.50572659907283,62,1
113,det,1304347.8260869565,63,0,0.0,True,ok,847.0917166569344,70.8305828284938,0.2945797332710216,310.11245130029727,249.53605194889155,62,1
113,det,1358483.8350055742,63,0,0.0,True,ok,805.1529790660226,74.52,0.338324357491888,327.3328784661842,272.4028643251916,62,1
113,det,1410334.448160535,63,0,0.0,True,ok,837.889968324752,71.60844772967256,0.2777298032586515,276.11990372131567,232.7070160552311,62,1
113,det,1463678.9297658864,63,0,0.0,True,ok,900.17872626568,66.65343031256164,0.24099771728154396,243.97541438146553,216.94101817543668,62,1
113,det,1521360.0891861762,63,0,0.0,True,ok,885.4913202739276,67.7589928057555,0.2310286854191477,234.3789971195498,204.57389567295098,62,1
113,det,1578015.607580825,63,0,0.0,True,ok,832.2273539664808,72.09568360620912,0.26325156208779754,225.24636171842724,219.0851509438705,62,1
113,det,1631527.3132664436,63,0,0.0,True,ok,768.5229424359868,78.07183974211365,0.3842714929936909,392.4766898485155,295.32145848978104,62,1
113,det,1680301.0033444816,63,0,0.0,True,ok,851.3386774256322,70.47723965911467,0.2652607845125815,245.5152234732156,225.82676545982676,62,1
113,det,1734604.2363433666,63,0,0.0,True,ok,785.3338288120955,76.40063091482594,0.3687131689777297,374.37713492031423,289.56292472672163,62,1
114,ref,861.1111111111112,63,0,0.0,True,ok,1099.9559082892415,54.547640998917714,0.03889449969805741,47.52040581201347,42.782234742832365,62,1
114,ref,71241.66666666666,63,0,0.0,True,ok,1079.6296296296296,55.57461406518011,0.13349913316060988,239.11566089061037,144.12961969006585,62,1
114,ref,140400.0,63,0,0.0,True,ok,1087.0811287477957,55.193672683025746,0.08494602141034284,153.46173069443444,92.34321683738992,62,1
114,ref,209969.44444444444,63,0,0.0,True,ok,1082.6719576719584,55.41844838118506,0.17777608671695913,310.99368143497895,192.47318383310997,62,1
114,ref,279236.11111111107,63,0,0.0,True,ok,1064.506172839507,56.36416352565957,0.18081756577757724,328.79148877426445,192.48141492804456,62,1
114,ref,347319.44444444444,63,0,0.0,True,ok,1068.0776014109354,56.17569352708055,0.1440960848230781,257.3107192724184,153.90580065053993,62,1
114,ref,415369.4444444445,63,0,0.0,True,ok,1099.2945326278652,54.580458848066776,0.14041408131819796,249.244927033492,154.35643189705948,62,1
114,ref,485683.3333333333,63,0,0.0,True,ok,1082.142857142858,55.4455445544554,0.17888302822554228,337.9901709151079,193.57699125835484,62,1
114,ref,555005.5555555556,63,0,0.0,True,ok,998.1040564373872,60.11397269956282,0.14355206116649616,222.3996827266945,143.27989456022775,62,1
114,ref,618772.2222222222,63,0,0.0,True,ok,952.072310405643,63.020423285324,0.05111523827313186,52.48693679812628,48.665402999635596,62,1
114,ref,679777.7777777779,63,0,0.0,True,ok,986.9929453262779,60.79070806343538,0.1629655041235937,154.2580616429557,160.84580290152743,62,1
114,ref,743008.3333333334,63,0,0.0,True,ok,995.5026455026449,60.271060324209444,0.102177679945657,160.31466407454926,101.71815069722409,62,1
114,ref,806736.1111111111,63,0,0.0,True,ok,1003.0423280423274,59.81801397863646,0.10065209754066522,166.37930723186133,100.95831423953226,62,1
114,ref,870869.4444444444,63,0,0.0,True,ok,977.2486772486785,61.396859772604145,0.04062027113065401,48.5963879393408,39.696106231914314,62,1
114,ref,933419.4444444445,63,0,0.0,True,ok,958.3774250440913,62.60581523739421,0.1159068794993375,192.05553767070717,111.08253671947085,62,1
114,ref,994736.1111111111,63,0,0.0,True,ok,942.5485008818315,63.65720166534144,0.04076684713217012,46.36986389002375,38.42473065010574,62,1
114,ref,1055038.8888888888,63,0,0.0,True,ok,945.3703703703728,63.46718903036223,0.04111582522113396,51.11997351868969,38.869682917386925,62,1
114,ref,1115497.2222222222,63,0,0.0,True,ok,931.7019400352701,64.39827741233282,0.03742447420916746,43.750177788801025,34.868455225481256,62,1
114,ref,1175138.888888889,63,0,0.0,True,ok,934.5238095238095,64.20382165605096,0.035743478180872854,36.617622244768015,33.40313139522046,62,1
114,ref,1234969.4444444445,63,0,0.0,True,ok,884.4356261022899,67.83987237648958,0.046831714956672994,47.02679358643216,41.41963713914905,62,1
114,ref,1291605.5555555555,63,0,0.0,True,ok,884.2151675485037,67.85678667597465,0.04209809965833677,43.493408958855575,37.22377824286985,62,1
114,ref,1348161.111111111,63,0,0.0,True,ok,870.0176366843054,68.9641191972429,0.036741219983674585,42.31720358007359,31.965509379094737,62,1
114,ref,1403819.4444444443,63,0,0.0,True,ok,879.541446208115,68.21736514938824,0.04867064983992772,52.655016632665316,42.807853748098786,62,1
114,ref,1460133.3333333335,63,0,0.0,True,ok,888.5802469135757,67.52344564084787,0.04260124617563398,45.86251379123149,37.854625845570865,62,1
114,ref,1517011.1111111112,63,0,0.0,True,ok,853.395061728393,70.30741410488262,0.04194327722337053,40.58328702783413,35.7941856551294,62,1
114,ref,1571580.5555555555,63,0,0.0,True,ok,838.8888888888926,71.5231788079467,0.07163593776396454,90.4255063702143,60.09459223532607,62,1
114,ref,1625238.8888888888,63,0,0.0,True,ok,858.4215167548492,69.89573167599781,0.0454626929664393,39.575668942992124,39.02615385201084,62,1
114,ref,1680155.5555555555,63,0,0.0,True,ok,857.936507936508,69.93524514338576,0.04837028934362678,49.97012249509377,41.49863712734964,62,1
114,ref,1735005.5555555555,63,0,0.0,True,ok,830.4673721340396,72.24847358640821,0.06345235025646621,68.48622055140173,52.69510657321615,62,1
114,det,869.5652173913044,63,0,0.0,True,ok,1099.7858823945778,54.556074014481105,0.039054618742503204,48.73835729386552,42.9517183353077,62,1
114,det,71248.60646599777,63,0,0.0,True,ok,1063.1558457645415,56.435752330226364,0.16869660289346,273.24823266953933,179.35077952680146,62,1
114,det,139264.21404682272,63,0,0.0,True,ok,1087.3989134858703,55.17754271765662,0.09145490876107353,166.32259617861865,99.44796841974075,62,1
114,det,208885.17279821628,63,0,0.0,True,ok,1065.4562828475869,56.3139013452915,0.19440053665911877,320.83826925829993,207.12527317240074,62,1
114,det,277056.856187291,63,1,0.015873015873015872,True,ok,1067.7167619664115,56.19467834287638,0.16547326989199923,303.4774519068755,176.6785839210795,60,2
114,det,346298.773690078,63,0,0.0,True,ok,1067.5797632319377,56.20188960716059,0.1566914140386637,280.7777198043934,167.28058269987412,62,1
114,det,414615.38461538457,63,0,0.0,True,ok,1094.4771814337037,54.8206952303961,0.16055985629840694,289.29781476819,175.7290989728809,62,1
114,det,484626.53288740246,63,0,0.0,True,ok,1081.3823857302111,55.484536082474264,0.1929489126065245,365.6877712561825,208.65155543849346,62,1
114,det,553857.3021181717,63,0,0.0,True,ok,1001.9288280157849,59.88449311197454,0.153066122688191,240.4831328395706,153.36136091389955,62,1
114,det,617892.9765886287,63,0,0.0,True,ok,951.1422554900822,63.082046511627865,0.052028316902398744,53.63368818132097,49.486330687900306,62,1
114,det,678751.3935340022,63,0,0.0,True,ok,987.0644653253349,60.786303334528505,0.16752044598189844,164.93682774448723,165.35347944418425,62,1
114,det,741962.0958751393,63,0,0.0,True,ok,996.6201270549088,60.20348011363642,0.11012502717127663,175.36894988291692,109.75281857136301,62,1
114,det,805730.2118171683,63,0,0.0,True,ok,1003.6983950027442,59.77891396332855,0.11119669729576928,185.61443626604677,111.6079466053696,62,1
114,det,869933.1103678929,63,0,0.0,True,ok,975.5622799101079,61.5029929258116,0.0395261330326632,46.95783384470044,38.560204457375136,62,1
114,det,932441.4715719062,63,0,0.0,True,ok,959.6361770274816,62.52369537156554,0.12035556658430722,200.74380352306005,115.4975558009411,62,1
114,det,993801.5607580824,63,0,0.0,True,ok,941.9405071578979,63.69829043772313,0.04121201134066884,48.24227967485676,38.81926286322665,62,1
114,det,1054124.8606465997,63,0,0.0,True,ok,945.833554529208,63.43610851262854,0.04089653417763217,51.59537219966317,38.681314289155075,62,1
114,det,1114604.2363433666,63,0,0.0,True,ok,931.8539753322386,64.38777060387375,0.03811380511053675,44.34515894828383,35.51650080729186,62,1
114,det,1174202.8985507246,63,0,0.0,True,ok,918.5822229300485,65.31805047197075,0.09592280588336742,93.79819964138152,88.11298425803118,62,1
114,det,1233076.923076923,63,0,0.0,True,ok,887.2608872608888,67.62385321100906,0.049628848485933,50.33675896549659,44.03373614136513,62,1
114,det,1289843.9241917501,63,0,0.0,True,ok,883.3678398895787,67.92187500000003,0.04226651036450811,43.292983674932444,37.33687596036602,62,1
114,det,1346410.2564102563,63,0,0.0,True,ok,870.8039142821752,68.90184921763868,0.0371551495698521,42.61630687045376,32.35484968116689,62,1
114,det,1402118.171683389,63,0,0.0,True,ok,879.2978358195747,68.23626484202055,0.049654926344947795,54.191419175754476,43.66146927289298,62,1
114,det,1458372.3522853956,63,0,0.0,True,ok,888.3226274530632,67.54302788844615,0.0432878877312385,47.40394859539094,38.453610166307,62,1
114,det,1515273.1326644372,63,0,0.0,True,ok,855.0547680982411,70.1709437086097,0.041996623460496346,42.28575988737212,35.909413133923856,62,1
114,det,1569966.5551839464,63,0,0.0,True,ok,838.7747518182289,71.53291139240517,0.07164318525123484,90.00282420869007,60.092494928571895,62,1
114,det,1623623.1884057971,63,0,0.0,True,ok,855.9395515917254,70.09840810419682,0.04616431243052356,38.98040212507575,39.51386088132265,62,1
114,det,1678450.3901895205,63,0,0.0,True,ok,858.9478154695548,69.85290482076635,0.04819385926811334,50.35666672144499,41.39601013739311,62,1
114,det,1733377.9264214048,63,0,0.0,True,ok,831.6964838703917,72.14170212766003,0.061733774101067486,67.6346944301141,51.34376285590688,62,1
115,ref,447.22222222222223,63,0,0.0,True,ok,955.5114638447972,62.79359512712842,0.07047723917778376,70.08574852675281,67.34180997450405,62,1
115,ref,61580.555555555555,63,0,0.0,True,ok,953.7477954144622,62.9097129120244,0.06065718088543306,73.88154489603131,57.85165254553804,62,1
115,ref,122652.77777777777,63,0,0.0,True,ok,943.2539682539685,63.609591922591484,0.0686100398617981,81.63136534960621,64.71669236170402,62,1
115,ref,182952.77777777778,63,0,0.0,True,ok,946.031746031746,63.42281879194631,0.08139665597280128,60.48164737715643,77.00382057109455,62,1
115,ref,243483.3333333333,63,0,0.0,True,ok,953.7037037037043,62.912621359223266,0.07180698345925735,71.46086841658918,68.48258607688436,62,1
115,ref,304594.44444444444,63,0,0.0,True,ok,946.1199294532629,63.41690744710597,0.06363615534367094,78.81177133320456,60.20743480443083,62,1
115,ref,365038.8888888889,63,0,0.0,True,ok,948.2804232804236,63.27242293206861,0.07354582469066279,84.64469982863696,69.74206576816954,62,1
115,ref,425625.0,63,0,0.0,True,ok,935.9347442680775,64.10703349507703,0.09441958146822937,81.35954001280503,88.37056683536616,62,1
115,ref,485525.0,63,0,0.0,True,ok,945.7671957671964,63.4405594405594,0.060771262001460394,67.67274016211073,57.475466046354775,62,1
115,ref,545986.1111111111,63,0,0.0,True,ok,919.6649029982361,65.24115447310386,0.060005958703365565,69.63504309900125,55.185374190246854,62,1
115,ref,604761.111111111,63,0,0.0,True,ok,908.1128747795417,66.0710817634492,0.06860343454712016,77.16492420575412,62.29966216633541,62,1
115,ref,662866.6666666666,63,0,0.0,True,ok,914.1975308641984,65.63133018230918,0.07237049026557361,75.74549838562052,66.1609235082189,62,1
115,ref,721330.5555555555,63,0,0.0,True,ok,923.3686067019404,64.97946709960841,0.07839429560354477,75.2286439130462,72.38683150482518,62,1
115,ref,780308.3333333333,63,0,0.0,True,ok,916.9753086419761,65.43251430494777,0.06651108838653982,68.49076337337141,60.98902580136111,62,1
115,ref,839036.1111111111,63,0,0.0,True,ok,941.1816578483235,63.749648646116434,0.08477427631873198,84.64249436216383,79.78799392855603,62,1
115,ref,899344.4444444444,63,0,0.0,True,ok,928.3950617283967,64.62765957446797,0.08419170035935605,90.30293280641506,78.16315885214304,62,1
115,ref,958766.6666666666,63,0,0.0,True,ok,907.6719576719582,66.10317691635088,0.07599464654945062,70.42939500949264,68.97820960612837,62,1
115,ref,1016897.2222222222,63,0,0.0,True,ok,892.4603174603175,67.22987994664295,0.06020946313822422,52.330209405364506,53.73455658645487,62,1
115,ref,1074105.5555555555,63,0,0.0,True,ok,954.1887125220475,62.88064322351082,0.09203440936148716,83.95823049789517,87.8181945763645,62,1
115,ref,1135088.888888889,63,0,0.0,True,ok,888.227513227512,67.55026061057345,0.068575475393889,58.63974822319825,60.910623977508465,62,1
115,ref,1191961.1111111112,63,0,0.0,True,ok,902.3368606701944,66.49401417053504,0.083578200594237,74.50219768017229,75.41569114466759,62,1
115,ref,1249913.8888888888,63,0,0.0,True,ok,841.7989417989443,71.27592708988037,0.10156087843798448,48.235233944820486,85.49383999726655,62,1
115,ref,1303691.6666666665,63,0,0.0,True,ok,898.104056437389,66.80740340713835,0.09901885781743469,61.85398911737212,88.92923786963516,62,1
115,ref,1361102.777777778,63,0,0.0,True,ok,896.2081128747742,66.94873560956451,0.09625510619410967,71.72335981037641,86.26460707678402,62,1
115,ref,1418602.777777778,63,0,0.0,True,ok,925.7495590828892,64.81234520861139,0.11136489088098421,79.29350651370262,103.0959986303852,62,1
115,ref,1477894.4444444445,63,0,0.0,True,ok,919.7530864197539,65.234899328859,0.0998474639092838,75.17982557069045,91.83501310174876,62,1
115,ref,1536788.8888888888,63,0,0.0,True,ok,937.4779541446229,64.00150503245212,0.11368397580150637,78.40409625664832,106.57622105342301,62,1
115,ref,1596747.2222222222,63,0,0.0,True,ok,917.9453262786587,65.36336999855907,0.15716074466460928,86.12989736109728,144.26497103935174,62,1
115,ref,1655400.0,63,0,0.0,True,ok,1011.72839506173,59.30445393532632,0.12215993956172991,101.13540513215634,123.59267959362694,62,1
115,ref,1719977.777777778,63,0,0.0,True,ok,901.0141093474369,66.59163200391528,0.12311168115723216,65.83543166202789,110.92536174814917,62,1
115,det,445.9308807134894,63,0,0.0,True,ok,955.5661729574772,62.790000000000006,0.07113329906983853,71.3978102498683,67.97257436200528,62,1
115,det,61583.05462653289,63,0,0.0,True,ok,953.7966059705188,62.90649350649352,0.06090734457341686,74.54325027564876,58.0932185328019,62,1
115,det,122107.02341137124,63,0,0.0,True,ok,938.2244164852862,63.95058468502451,0.08698247687925378,93.64848174919435,81.60908361448277,62,1
115,det,182084.72686733556,63,0,0.0,True,ok,927.2531011661446,64.70725190839696,0.11413158223005318,106.06462074211544,105.82886356381564,62,1
115,det,241549.6098104794,63,0,0.0,True,ok,953.7966059705193,62.90649350649349,0.07149214522424185,70.5362879632761,68.18896546843335,62,1
115,det,302564.10256410256,63,0,0.0,True,ok,949.0187751057314,63.22319597240352,0.06362845271204065,77.09461803280418,60.38459625465377,62,1
115,det,363311.03678929765,63,0,0.0,True,ok,946.1874679265985,63.412380774265934,0.07486236938147857,84.11996143300998,70.83383572804692,62,1
115,det,423846.1538461538,63,0,0.0,True,ok,934.3313691139781,64.21704545454543,0.09472665101802094,81.76352966473003,88.50608153724951,62,1
115,det,483701.22630992194,63,0,0.0,True,ok,945.6565978305123,63.44797904191607,0.06138642811756381,70.67824078941179,58.05048076662269,62,1
115,det,544202.8985507246,63,0,0.0,True,ok,917.5204827378741,65.39363548698168,0.05910863625374132,65.18979910373187,54.23338446951014,62,1
115,det,603032.3299888518,63,0,0.0,True,ok,906.7261241174281,66.17213114754101,0.06927046941711097,77.76772014893066,62.809344250371865,62,1
115,det,661114.8272017837,63,0,0.0,True,ok,914.1583054626549,65.6341463414633,0.07261128907745651,77.12061520703548,66.37821298050662,62,1
115,det,719576.3656633222,63,0,0.0,True,ok,924.0678805896184,64.93029490616631,0.07809909181739243,75.78338944078959,72.16886225167183,62,1
115,det,778673.3556298774,63,0,0.0,True,ok,914.5122188600445,65.608746130031,0.06930493785018756,69.21666379064864,63.38021249133251,62,1
115,det,837168.3389074693,63,0,0.0,True,ok,941.5865937605082,63.72223266303317,0.08529447498233309,84.63075597987005,80.31213416520589,62,1
115,det,897424.7491638795,63,0,0.0,True,ok,924.5987506857075,64.89301435406696,0.07786662356974319,84.53595812764522,71.99538287269883,62,1
115,det,956833.8907469342,63,0,0.0,True,ok,910.4422147900406,65.90204081632655,0.07615245610825075,72.20743006696841,69.33241080089716,62,1
115,det,1015061.315496098,63,0,0.0,True,ok,892.7465449204587,67.20832507433096,0.06094182181560197,53.220970911296845,54.405600867036895,62,1
115,det,1072207.3578595319,63,0,0.0,True,ok,955.5661729574758,62.7900000000001,0.09117807225543455,83.38997855053626,87.1266815627658,62,1
115,det,1133288.740245262,63,0,0.0,True,ok,883.0139264921872,67.9490981963928,0.05861367886300685,55.70538631319902,51.7566947189758,62,1
115,det,1190033.4448160534,63,0,0.0,True,ok,904.9565571304744,66.30152522487259,0.08464498455085855,75.4653045555149,76.60003379750714,62,1
