record,t0_ms,n_ref_beats,n_det_beats,cv_ref,cv_det,rmssd_ref,rmssd_det,bsqi,ksqi,psqi,flatline_frac,sat_frac,d_cv,abs_d
100,213.88888888888889,64,63,0.048219551756096,0.05048229821479158,58.40795704726972,62.57766170162937,0.9841269841269841,30.0367435821777,0.4487158164935324,0.011757021554539516,0.00043535045711797995,0.0022627464586955845,0.0022627464586955845
100,52208.333333333336,64,62,0.03038339829001703,0.030981902436049456,25.034822422612706,24.509301297422407,0.9841269841269841,29.860057024571475,0.45143411138170714,0.01024411508282476,0.00043582479843103073,0.0005985041460324254,0.0005985041460324254
100,104163.88888888889,64,63,0.03189434105760824,0.033056842797993154,27.49633406650317,29.667743315901873,1.0,28.86318473644904,0.44972445290702634,0.012624584717607974,0.0004428697962798937,0.0011625017403849164,0.0011625017403849164
100,155300.0,64,63,0.059062327580420806,0.06157827369291393,71.23323406951009,75.47640791734777,0.96875,28.598404731018736,0.4563771256646883,0.013608428446005268,0.00043888523151195964,0.002515946112493124,0.002515946112493124
100,206897.22222222222,64,63,0.049801359222739934,0.05020007302458744,58.073538227782066,58.08617857622754,1.0,26.876438587205048,0.4448124106905306,0.008480104370515329,0.0004347826086956522,0.000398713801847507,0.000398713801847507
100,259016.66666666666,64,64,0.056681783681015674,0.056627787480967605,72.64317630252582,72.71920256880429,0.984375,28.58870630001135,0.46381461289665915,0.012516469038208168,0.0004390779363336992,-5.399620004806899e-05,5.399620004806899e-05
100,310583.3333333333,64,63,0.0626764778893994,0.06355401490837213,70.83465105245433,72.61473812037418,0.96875,24.796365367082473,0.4544065950370757,0.0124972104440973,0.0004462293618920125,0.0008775370189727377,0.0008775370189727377
100,361269.44444444444,64,63,0.04847109248451064,0.049438777565697964,23.913569812694863,24.96912667741509,1.0,23.16000205594397,0.44238748691104507,0.01278409090909091,0.00047337278106508875,0.0009676850811873236,0.0009676850811873236
100,409138.88888888893,64,63,0.04688239980663864,0.047453277020086435,24.855215956720457,27.567479186610054,1.0,23.908653847074316,0.4482918970169498,0.01164448669201521,0.0004751722499406035,0.0005708772134477916,0.0005708772134477916
100,456836.1111111111,64,63,0.06113207831362024,0.06382736740712427,61.28802999338991,65.4890498556475,0.96875,25.58088459133183,0.4583335570287728,0.012725590004627488,0.0004626416840157298,0.0026952890935040344,0.0026952890935040344
100,505788.8888888889,64,62,0.03925439665697843,0.03795356832379095,24.845199749992265,26.02590307678296,0.9841269841269841,25.788295075410986,0.44679130549211415,0.01243615367532756,0.0004440497335701599,-0.0013008283331874745,0.0013008283331874745
100,556761.111111111,64,63,0.03177813535929316,0.0312100186502035,24.68438770586956,25.172296232256627,1.0,26.372235908153197,0.4470775532460384,0.010894235133908307,0.0004538234626730202,-0.0005681167090896555,0.0005681167090896555
100,606711.1111111111,64,64,0.03092823551149725,0.03164423153745975,25.6802125653931,26.863522705767284,0.984375,25.717048163121948,0.45218299531393497,0.009528130671506351,0.0004536176003628941,0.000715996025962503,0.000715996025962503
100,656638.8888888889,64,63,0.04693822766135312,0.047857298971074054,25.993309343460023,27.23286488185807,0.9841269841269841,25.39310567362937,0.46314185758496795,0.013651087459509487,0.0004626416840157298,0.0009190713097209369,0.0009190713097209369
100,705583.3333333334,64,63,0.045317793145765804,0.045531206833972736,29.401469957874067,29.9411845185659,1.0,25.565250043372767,0.4627718968193889,0.013876251137397634,0.00045485558335228563,0.00021341368820693152,0.00021341368820693152
100,755422.2222222222,64,64,0.059455476050304,0.05980700436760726,68.87761498684132,69.53450445280448,0.984375,29.226580431947703,0.46265582339822375,0.013588772555134774,0.00044543429844097997,0.0003515283173032638,0.0003515283173032638
100,806269.4444444444,64,63,0.05786603106628075,0.05924639683212305,67.14286319523102,70.01489646821436,0.96875,28.185227831155977,0.46444988434361256,0.01464388728644331,0.00044365572315882877,0.0013803657658423008,0.0013803657658423008
100,857291.6666666666,64,63,0.08564844295013804,0.08638381663703977,106.91389267084831,107.72776004405344,0.96875,28.649071181890474,0.45944698895155084,0.00940096195889812,0.0004371584699453552,0.0007353736869017274,0.0007353736869017274
100,909100.0,64,62,0.03084931616595983,0.030899209474011834,26.580374868625935,26.809991059712107,0.9841269841269841,28.247839650097553,0.46362195584402727,0.014145810663764961,0.0004351610095735422,4.9893308052002816e-05,4.9893308052002816e-05
100,961158.3333333333,64,64,0.0680881503134468,0.06873814340571383,82.1533846782943,84.04844097676906,0.984375,27.53110743851224,0.4568175441491899,0.012168141592920354,0.00044238000442380006,0.0006499930922670288,0.0006499930922670288
100,1012350.0,64,63,0.0525992571245395,0.052943781446598934,58.16561483816582,59.40412226681485,1.0,29.132732162564203,0.4692163213439645,0.015694076038903625,0.0004419889502762431,0.0003445243220594335,0.0003445243220594335
100,1063597.2222222222,64,63,0.05979010455126215,0.05950842648606692,74.60068929629482,74.03188021362433,1.0,28.936916385310752,0.45480322701171016,0.012304987914744013,0.0004393673110720562,-0.00028167806519523164,0.00028167806519523164
100,1115147.222222222,64,64,0.030115302210865016,0.030207273771741167,24.785017506410682,25.48497531775839,0.984375,28.062123512956028,0.47163887503546215,0.013605442176870748,0.00043878894251864854,9.19715608761508e-05,9.19715608761508e-05
100,1166727.777777778,64,62,0.09666366376256987,0.09731456728045945,126.77797646519372,127.12615296171096,0.9841269841269841,28.625217616393535,0.4608035147038375,0.013421342134213421,0.0004399472063352398,0.0006509035178895867,0.0006509035178895867
100,1218250.0,64,63,0.07961456020941063,0.07960837983318282,104.53608330165714,104.24833926102218,0.96875,30.289223228408947,0.4595532208961046,0.01303780964797914,0.00043449923962633063,-6.180376227807316e-06,6.180376227807316e-06
100,1270369.4444444445,64,63,0.04922477303836884,0.05111698530773254,61.79460557024652,64.70659584054032,0.96875,29.18875375296613,0.4557353661135967,0.01040537611099068,0.00043346337234503684,0.0018922122693636953,0.0018922122693636953
100,1322600.0,64,62,0.03278364240900139,0.03391113038406661,24.52505850398837,26.887142272635767,0.9841269841269841,29.974266315879795,0.4588788802705958,0.011373578302712161,0.0004373496610540127,0.0011274879750652195,0.0011274879750652195
100,1374413.8888888888,64,64,0.05596647198254067,0.056164044739535034,69.66809862876339,69.34686559323102,0.984375,28.527640264317107,0.46092325387676975,0.01028221395755852,0.0004374453193350831,0.00019757275699436305,0.00019757275699436305
100,1426177.7777777778,64,62,0.05591340224016531,0.057846839029851285,72.99012769911587,75.3917779437407,0.9841269841269841,28.309415732694656,0.45856878712344895,0.014938298332972505,0.0004329004329004329,0.001933436789685973,0.001933436789685973
100,1478491.6666666665,64,62,0.07294897986878904,0.13807178523216046,97.29899682403357,162.1425367971364,0.9841269841269841,29.79051268710396,0.44558076737885005,0.014413627429569776,0.0004366812227074236,0.06512280536337142,0.06512280536337142
100,1530422.2222222222,64,63,0.0789307975054676,0.0787849768933292,103.40070837020708,103.05913711462023,1.0,29.51061699765063,0.4741220653750967,0.012755663074554651,0.00043975373790677223,-0.00014582061213840036,0.00014582061213840036
100,1581894.4444444445,64,64,0.07199904460721622,0.07131188634732848,76.96629284925409,75.74370188133145,0.984375,23.42738189876465,0.4552683050876789,0.011315731084978922,0.00044365572315882877,-0.0006871582598877435,0.0006871582598877435
100,1632897.222222222,64,63,0.06544801857421723,0.06425265464034381,54.39422378381966,53.00596830424887,1.0,25.235160550115292,0.47525739989791643,0.009046624913013222,0.00046382189239332097,-0.001195363933873414,0.001195363933873414
100,1681830.5555555555,64,63,0.03247703805740977,0.03330498313258216,24.724688773947666,25.493999970960594,0.96875,25.98010505621193,0.4814165655886544,0.012777404169468728,0.00044822949350067237,0.0008279450751723857,0.0008279450751723857
100,1732327.7777777778,64,64,0.06284601536970064,0.06386129784761903,66.14660503178183,68.04836614292047,0.984375,27.7015468796317,0.4867467425457473,0.009839816933638444,0.0004575611988103409,0.0010152824779183917,0.0010152824779183917
101,230.55555555555557,64,62,0.058239818985841726,0.059035840299066125,26.146072072622605,27.002455777904803,0.9841269841269841,23.153336553372814,0.45782481889402543,0.007742205482318477,0.00041841004184100416,0.0007960213132243987,0.0007960213132243987
101,54327.777777777774,64,63,0.03879836349055745,0.040092973299566535,29.66903927795426,32.07660000399093,0.96875,8.626120675709728,0.46105849336084526,0.013368442373911282,0.0004050222762251924,0.001294609809009084,0.001294609809009084
101,110255.55555555556,64,63,0.05507495606239334,0.05548625725334784,26.899187873311565,28.188693205786567,0.96875,6.074054868200689,0.46437481962690275,0.00865426222414539,0.00043261951113995244,0.0004113011909544981,0.0004113011909544981
101,162616.6666666667,64,62,0.03624529643816801,0.12873650530804276,36.131783440504044,161.89322919498542,0.9384615384615385,18.856596732053752,0.4077222378463005,0.020787962779647593,0.000395882818685669,0.09249120886987475,0.09249120886987475
101,219886.11111111112,64,64,0.046405288481982394,0.046204483771889356,38.506181394364596,38.35833450965644,0.984375,23.819639404833318,0.48569156663404434,0.012873911397198031,0.0003785727806170736,-0.0002008047100930388,0.0002008047100930388
101,279783.3333333334,64,64,0.1305999608812612,0.07793825199341048,167.35818309725624,105.36301458504036,0.9545454545454546,18.544704837755038,0.3729822984097854,0.013815669878203964,0.0003635041802980734,-0.05266170888785071,0.05266170888785071
101,342069.44444444444,64,63,0.0848248777547883,0.08442923073682312,116.11814216164207,114.96472066107003,0.96875,24.450034258333602,0.4801554526830381,0.016229029905178702,0.00036463081130355516,-0.00039564701796517,0.00039564701796517
101,404186.1111111111,64,63,0.03427154738654939,0.03502812724743856,38.596571615897616,39.35042575387257,0.96875,26.52396340240969,0.48218815886044303,0.014866032843560934,0.0003456619426201175,0.0007565798608891727,0.0007565798608891727
101,469591.6666666666,64,63,0.050297207673560315,0.05044282467278155,42.12117695871104,40.89914395184605,0.96875,23.548875951753523,0.4904890588337293,0.011223750905141203,0.00036199095022624434,0.00014561699922123472,0.00014561699922123472
101,532166.6666666666,64,63,0.04497583214368188,0.045182763595961246,33.07283214672441,31.56436588914334,0.96875,24.99878838777935,0.4849671063121219,0.012818198230727568,0.00036101083032490973,0.0002069314522793672,0.0002069314522793672
101,594866.6666666666,64,63,0.048636830964559605,0.04850446414970571,57.34245467996103,57.41586314984193,0.96875,26.342073142813145,0.48235783772789526,0.01620859760394644,0.00035229874933943986,-0.0001323668148538945,0.0001323668148538945
101,659236.1111111111,64,63,0.0369921960996483,0.03762177608867506,40.016610947621004,41.27107470990944,0.96875,25.18395826458442,0.4787080409629586,0.0175866271983284,0.00034818941504178273,0.0006295799890267614,0.0006295799890267614
101,724311.1111111111,64,63,0.031299217144262606,0.03178722220998429,39.39127619643125,40.34744415047516,0.96875,20.49852813303493,0.4878721615809772,0.016646223935517786,0.000350385423966363,0.00048800506572168473,0.00048800506572168473
101,788950.0,64,64,0.03967822403659055,0.03987862452806322,39.629092270715,40.567971343901,0.984375,23.14233577425352,0.484962222803548,0.011965511173675876,0.0003518648838845883,0.00020040049147267147,0.00020040049147267147
101,853302.7777777778,64,64,0.05332760743005085,0.10588293648851325,42.10787903353061,99.80360083682886,0.9538461538461539,22.539012108965718,0.46157184776310656,0.01757883291047481,0.0003623844899438304,0.052555329058462406,0.052555329058462406
101,915891.6666666666,64,62,0.069544047912754,0.06921898344822822,38.485167587723815,41.16314828998545,0.9841269841269841,24.977446272543528,0.48133586662742645,0.010528260066494275,0.0003693444136657433,-0.00032506446452577886,0.00032506446452577886
101,977163.8888888889,64,63,0.06660038771883763,0.06625228642838654,43.711758618190025,43.92559256767446,0.96875,26.55496002354857,0.4754932523700621,0.010865628395508874,0.0003621220351258374,-0.0003481012904510833,0.0003481012904510833
101,1039722.2222222221,64,62,0.04458904771764512,0.045067072724259714,40.98456013735652,42.37809990801173,0.9841269841269841,27.881225175718306,0.47951149970491375,0.014992774566473988,0.00036120642947444465,0.00047802500661459774,0.00047802500661459774
101,1102491.6666666665,64,63,0.035888262867520414,0.036315170842513136,38.0346527110234,37.33109168391649,0.96875,29.90339490157137,0.487367050714837,0.01695813460519343,0.00035323207347227127,0.00042690797499272265,0.00042690797499272265
101,1166583.3333333333,64,63,0.03875577605536029,0.03887928029177985,36.86995616841259,37.27647411007246,0.96875,26.951755685747084,0.48897895034861677,0.015630614444843694,0.00035925992455541585,0.000123504236419561,0.000123504236419561
101,1229583.3333333333,64,63,0.035830617774850075,0.03497039912697313,36.19372958583367,37.358370526854074,0.96875,24.417554712251317,0.492996849013093,0.008095676172953082,0.0003679175864606328,-0.0008602186478769425,0.0008602186478769425
101,1291111.111111111,64,64,0.03456569303246682,0.03447907102740115,36.804076185858264,37.29850694810701,0.984375,24.494586847600207,0.48511007123136,0.010564663023679418,0.00036423238025860496,-8.662200506567158e-05,8.662200506567158e-05
101,1353369.4444444445,64,63,0.048620430697195315,0.04619150455212685,34.60643777743317,35.39812001235819,0.96875,21.597440669035162,0.47926401977678845,0.009437523593808984,0.0003774297037176826,-0.002428926145068462,0.002428926145068462
101,1413469.4444444445,64,63,0.03360566266724996,0.03366764091447049,34.243110275763094,36.78126648201132,0.96875,23.249834421538445,0.4810693594445926,0.013866666666666666,0.00035549235691432633,6.197824722053297e-05,6.197824722053297e-05
101,1477158.3333333333,64,62,0.06700584102695559,0.050408202419424175,90.86827832847861,47.34188674598321,0.9841269841269841,28.612763950515617,0.47954101226222456,0.015920223932820155,0.00034983382893125764,-0.016597638607531412,0.016597638607531412
101,1541919.4444444445,64,63,0.04244962337581685,0.04200857556235596,43.33574572830551,43.388898508559784,0.96875,26.327708097337922,0.4840082072211318,0.012963949564908542,0.0003551136363636364,-0.0004410478134608889,0.0004410478134608889
101,1605772.222222222,64,64,0.04140113692996279,0.04143830397699367,38.09187106430448,38.69652914982682,0.984375,24.78876792334174,0.48768251787158884,0.01774937877174299,0.000354924578527063,3.7167047030876865e-05,3.7167047030876865e-05
101,1669561.1111111112,64,63,0.03987840190521694,0.04113899691889188,38.95922977963287,41.39430900838842,0.9841269841269841,26.526691049757606,0.4891033182026699,0.011245983577293823,0.0003569516330537212,0.0012605950136749464,0.0012605950136749464
101,1732975.0,64,64,0.040737244102995195,0.04129792784215792,36.62611801582953,38.33219594815802,0.984375,28.54926396054637,0.488788028516073,0.018307856381087808,0.00035542918073573843,0.0005606837391627234,0.0005606837391627234
103,736.1111111111112,64,62,0.03988598143843804,0.041011980671745406,29.286959650593,31.499211932783915,1.0,23.724175983115085,0.42482011358054667,0.012195121951219513,0.0004133085348212441,0.001125999233307369,0.001125999233307369
103,55527.77777777778,64,64,0.03376580555542031,0.03375468149086152,28.28391924069875,28.91210681396888,0.984375,25.306498059709224,0.42119301375940665,0.010609527771999168,0.00041597337770382697,-1.1124064558790114e-05,1.1124064558790114e-05
103,109938.88888888888,64,64,0.03605916200340708,0.036243222382084175,26.542891508003066,27.852693156598946,0.96875,24.330136235215065,0.4362783149425714,0.01174460815716421,0.0004269854824935952,0.0001840603786770964,0.0001840603786770964
103,163061.1111111111,64,63,0.036747754248105016,0.03612243488982162,30.867582450782493,31.402579247754712,1.0,25.09266249451741,0.41174391675246913,0.013235593565465283,0.00040716612377850165,-0.0006253193582833952,0.0006253193582833952
103,218605.55555555556,64,63,0.04144818657896517,0.04236404726200607,28.40904565362599,30.279513726598815,1.0,23.750878625679494,0.44788066527135817,0.011137803013758463,0.0004366812227074236,0.0009158606830408991,0.0009158606830408991
103,270488.8888888889,64,64,0.03647896034224181,0.0366322447157521,31.268164772442933,31.87980761335069,0.984375,24.039705953014515,0.4324073901744631,0.012647898816809465,0.0004079135223332653,0.00015328437351028873,0.00015328437351028873
103,325994.4444444445,64,63,0.04576352621454039,0.04525050275643271,29.105799263670498,30.614104146020328,1.0,25.465742536487088,0.433166845430736,0.013795986622073578,0.0004179728317659352,-0.0005130234581076781,0.0005130234581076781
103,380263.88888888893,64,64,0.038794054919724895,0.03949996084543311,32.45558801115274,33.354789467467306,0.984375,25.133872781287973,0.4230456269804307,0.0113544201135442,0.00040543279951348065,0.0007059059257082181,0.0007059059257082181
103,436080.55555555556,64,62,0.03602320831617356,0.036805823303400965,29.83009767333176,31.400416461205644,0.9841269841269841,26.165240492212767,0.42303810664462116,0.011517893870835048,0.00041126876413736374,0.0007826149872274049,0.0007826149872274049
103,491161.1111111111,64,63,0.03853364204763781,0.039634009119931396,30.465818047351206,33.20024373310864,0.96875,25.343508732559776,0.4214271727141619,0.014084507042253521,0.00040816326530612246,0.0011003670722935857,0.0011003670722935857
103,546711.1111111111,64,64,0.03811499777692343,0.03796601677866338,27.473694018133383,27.74452694933352,0.984375,25.558456889714765,0.42851637284519184,0.012700395586092025,0.00041631973355537054,-0.00014898099826005096,0.00014898099826005096
103,601125.0,64,63,0.037039371320511154,0.03802560483462489,32.600975081477294,34.37610254817994,1.0,26.0650294023218,0.4307207354004522,0.010382059800664452,0.00041519618019514223,0.0009862335141137338,0.0009862335141137338
103,655688.8888888889,64,62,0.03398883288032762,0.03411039345170626,29.570299769092752,30.360710959451655,0.9841269841269841,25.742393188676058,0.42153676678646246,0.015422578655151141,0.00041118421052631577,0.00012156057137863857,0.00012156057137863857
103,710736.1111111111,64,63,0.03292045118484045,0.03265275345070449,29.71514503890055,29.9751892819573,0.96875,25.64881231686114,0.42549807469541534,0.014848422355124768,0.0004123711340206186,-0.0002676977341359646,0.0002676977341359646
103,765638.8888888889,64,63,0.04012270891587828,0.040581302516191534,33.05965909290444,33.8986334912039,1.0,25.684327070161565,0.4178160731302559,0.014279967819790828,0.0004021717273275689,0.0004585936003132507,0.0004585936003132507
103,821963.8888888889,64,62,0.03578258108325625,0.03658215431891293,32.307620736055576,34.08892943461227,0.96875,24.763128183948155,0.41341284136640916,0.013616339607529036,0.0004004004004004004,0.0007995732356566795,0.0007995732356566795
103,878533.3333333333,64,63,0.04418334910019689,0.04500541373125523,33.85016001931003,35.68474914516857,0.96875,25.295743133173964,0.42402830013206977,0.012522722682286406,0.0004038772213247173,0.0008220646310583418,0.0008220646310583418
103,934619.4444444444,64,63,0.035439538652846866,0.03605600058769314,29.1527958141924,30.178413231569234,0.96875,22.11013232887613,0.4221256557636893,0.016298946531504672,0.000397456279809221,0.0006164619348462755,0.0006164619348462755
103,991580.5555555555,64,63,0.036134239301127344,0.03641364647655012,31.935677463013057,32.17173595193411,1.0,25.452609047698363,0.41793678880266255,0.01212366134572641,0.00040404040404040404,0.0002794071754227759,0.0002794071754227759
103,1047613.8888888889,64,64,0.09258531881800738,0.09252893915540035,30.26499187464104,30.16752203585338,0.921875,10.341797206364456,0.41419274799869815,0.020815632965165677,0.00042471862391165854,-5.6379662607033976e-05,5.6379662607033976e-05
103,1100758.3333333335,64,63,0.09000952032181783,0.08698967659013174,35.94876658799799,37.76518873433085,0.96875,6.677940692849471,0.41940782166861035,0.018029350104821804,0.00041919932928107315,-0.003019843731686095,0.003019843731686095
103,1154686.1111111112,64,62,0.07595330481169295,0.07316818279225795,46.357784734578004,48.466142963861316,0.9841269841269841,13.613880762298963,0.45113967786452625,0.01693877551020408,0.00040807998367680065,-0.0027851220194349963,0.0027851220194349963
103,1210100.0,64,63,0.07993580754401453,0.08067082934184379,32.798881487642625,34.22760897036263,1.0,19.494749845090638,0.4168281114935447,0.012507817385866166,0.00041684035014589413,0.0007350217978292634,0.0007350217978292634
103,1264436.1111111112,64,63,0.04246854569013295,0.0433429981478073,31.624350774831182,31.661041049314246,1.0,24.284474598713864,0.40526249059217656,0.011011011011011011,0.00040032025620496394,0.0008744524576743545,0.0008744524576743545
103,1321000.0,64,63,0.08422932483070235,0.08551914007860952,63.646884652177285,65.39564968944897,1.0,19.35936708856672,0.40572778863126524,0.014925373134328358,0.0004088307440719542,0.0012898152479071667,0.0012898152479071667
103,1376397.222222222,64,63,0.03907960969219702,0.0396453469731504,32.48433436735908,33.015625562012886,1.0,20.65495735684031,0.39465911570034534,0.012007204322593557,0.00040016006402561027,0.0005657372809533753,0.0005657372809533753
103,1433044.4444444445,64,63,0.04723038609000187,0.04479300239499169,37.99700516402309,38.19435238323024,0.96875,24.23680001422785,0.40230249129584605,0.014251781472684086,0.00039580447259054025,-0.0024373836950101826,0.0024373836950101826
103,1490225.0,64,63,0.039996746991484776,0.04076708773560267,32.023239271579165,34.40572435681059,0.96875,25.16029154166942,0.39973770653244783,0.011845011041959445,0.0004014452027298274,0.0007703407441178936,0.0007703407441178936
103,1546655.5555555555,64,63,0.040026522111852494,0.03882969125784748,31.855689385641178,31.78948393389896,0.96875,24.699822248227495,0.39760207494120714,0.011037527593818985,0.0004012841091492777,-0.0011968308540050154,0.0011968308540050154
103,1603091.6666666667,64,63,0.03388682755820096,0.03447305303115402,30.835311054189816,32.26659139882756,0.96875,25.115375855048764,0.3988180143191387,0.012175648702594811,0.0003991219317501497,0.0005862254729530614,0.0005862254729530614
103,1659805.5555555557,64,63,0.03920017033106784,0.03873569214010889,36.01448334706042,37.60298960790725,1.0,24.90294301310116,0.39594549687118347,0.010317460317460317,0.00039674667724657806,-0.0004644781909589474,0.0004644781909589474
103,1716941.6666666665,64,63,0.04438822693979628,0.044961624761368744,30.67750185186634,31.69320057108088,1.0,25.923738141890215,0.40112822140428145,0.013537726458291858,0.0003980891719745223,0.0005733978215724661,0.0005733978215724661
105,547.2222222222223,64,62,0.12464199793312487,0.12497932514921718,150.059310589327,150.61173838385542,0.9841269841269841,13.226961403976029,0.5096308573315915,0.018123928483957875,0.0004897159647404506,0.0003373272160923091,0.0003373272160923091
105,46816.66666666667,64,62,0.09930566354436507,0.099395440853948,118.34010615514202,118.6824186003074,0.9841269841269841,12.257706545605831,0.49896880977420704,0.00980392156862745,0.000490075961774075,8.977730958292796e-05,8.977730958292796e-05
105,93027.77777777777,64,64,0.09965943274462842,0.09765438903299584,121.55088106048005,118.82027588134297,0.96875,12.706403984336948,0.5129327526118325,0.012645673196131912,0.0004957858205255329,-0.002005043711632584,0.002005043711632584
105,138730.55555555556,64,63,0.07722060892132124,0.076131551102645,86.51843195585379,84.3489648056607,0.96875,13.01510114857838,0.5162279310347085,0.0143316036570299,0.0004940711462450593,-0.0010890578186762423,0.0010890578186762423
105,184566.66666666666,64,64,0.12882661882408084,0.12805592160305593,154.8655812878453,153.85084449218436,0.984375,12.84045516174811,0.5093207127998534,0.01111934766493699,0.0004940711462450593,-0.0007706972210249075,0.0007706972210249075
105,230372.22222222225,64,62,0.031212608280412057,0.03141893252284142,21.91771658451033,22.665106922299056,0.9841269841269841,11.35539133555782,0.5026091596191874,0.012478590653290923,0.0004892367906066536,0.0002063242424293621,0.0002063242424293621
105,276713.8888888889,64,62,0.10703378541823215,0.10812461416552249,132.01257437423075,133.18958357520086,0.9841269841269841,12.540641428231226,0.5052968503755929,0.013118811881188118,0.0004949269982677555,0.0010908287472903427,0.0010908287472903427
105,322511.1111111111,64,62,0.10581867111736758,0.10697722052497283,126.0395838715312,127.64649753817714,0.9841269841269841,12.381232390116953,0.5045126770845954,0.012512266928361139,0.0004905567819475104,0.00115854940760525,0.00115854940760525
105,368661.1111111111,64,64,0.08570452031162594,0.08457254364872317,104.55453474985933,103.02549134671844,0.984375,12.531069971570057,0.5110518366066056,0.010263929618768328,0.0004886391399951136,-0.0011319766629027672,0.0011319766629027672
105,415005.5555555555,64,64,0.1117506314131422,0.11139463896691448,133.99718994655686,133.68932856406911,0.984375,12.339944649986215,0.49844913763210635,0.011094674556213017,0.0004929751047572097,-0.00035599244622772086,0.00035599244622772086
105,460683.3333333333,64,63,0.08388007744132642,0.06624226290267182,79.41661793040792,74.01811836201813,0.96875,12.871110580448555,0.5188227267539127,0.012451171875,0.000488162069807176,-0.017637814538654595,0.017637814538654595
105,507066.6666666667,64,63,0.07885142569945347,0.07841891260799633,92.66924843620043,84.9027102103211,1.0,12.863149121620033,0.5183996487372807,0.01001710236989983,0.0004885197850512946,-0.0004325130914571429,0.0004325130914571429
105,553413.8888888889,64,63,0.029597489817101672,0.030458660576048235,19.43484145870344,21.315477745793878,0.96875,12.181388418900069,0.4999727794471016,0.008580534444716842,0.0004901960784313725,0.0008611707589465632,0.0008611707589465632
105,599655.5555555556,64,62,0.07190353240493659,0.10021695193571209,88.0533083168382,125.58517294662434,0.96875,11.938537530600659,0.5072293822885395,0.011184050571359105,0.0004861448711716091,0.0283134195307755,0.0283134195307755
105,646266.6666666666,64,63,0.11137019051906918,0.11407581641733353,138.43159484602404,142.29581769594463,0.96875,12.889730183389403,0.5054603316228864,0.010029354207436399,0.0004891171435558817,0.002705625898264341,0.002705625898264341
105,692533.3333333333,64,63,0.07475819309254723,0.07460598288856264,86.79991021070994,87.45603294101493,0.96875,13.039434555421439,0.5135005073342876,0.010861694424330196,0.00048262548262548264,-0.00015221020398459295,0.00015221020398459295
105,739466.6666666667,64,63,0.07936136015479003,0.07809692899566982,92.13522043759217,90.01615015829105,0.96875,13.676646516930788,0.5144305275267007,0.011681674373326843,0.00048661800486618007,-0.0012644311591202134,0.0012644311591202134
105,786019.4444444444,64,63,0.07360859560814835,0.07321197901106018,86.68513152255076,86.90683470476017,1.0,12.776514619636053,0.5370536990771337,0.009398961167449914,0.0004945598417408506,-0.000396616597088173,0.000396616597088173
105,831791.6666666666,64,63,0.08037500382201973,0.08074295419930907,91.11310536326424,92.16342102637624,0.90625,5.8647168493027335,0.48147130699666446,0.014073887911535563,0.0005025125628140704,0.00036795037728934443,0.00036795037728934443
105,876847.2222222221,64,62,0.033645361460073527,0.03470857017544544,18.273089897917323,21.20126618447197,0.9841269841269841,7.29642965842553,0.4939051040724177,0.014798093804865815,0.0005015045135406219,0.0010632087153719105,0.0010632087153719105
105,922022.2222222222,64,62,0.030593581071712332,0.031139781173340878,21.042853243837925,22.156752412889155,0.9841269841269841,12.87643907076609,0.5102553608268632,0.01240272373540856,0.0004862630683199611,0.000546200101628546,0.000546200101628546
105,968605.5555555556,64,63,0.029150973725229682,0.029376154444339917,21.072403677173234,21.505798287654617,0.984375,10.816191602298872,0.5065169311133839,0.010633156114064766,0.00048320850446967865,0.00022518071911023507,0.00022518071911023507
105,1015452.7777777778,64,63,0.06255317122236025,0.07542736500863985,68.44441244241406,71.36949829036008,0.9393939393939394,15.50309718717443,0.4624275816399308,0.009608091024020228,0.0005055611729019212,0.012874193786279603,0.012874193786279603
105,1060247.2222222222,64,63,0.031233019155475057,0.05013664751645477,19.66401881614045,48.928462928190186,0.96875,11.407022546018196,0.47229388755928764,0.009746088740702744,0.0005128205128205128,0.01890362836097971,0.01890362836097971
105,1104436.1111111112,64,64,0.032031638353103624,0.0330701654375904,20.873616967480686,23.264493098332295,0.9692307692307692,9.753890024166495,0.40180924094276327,0.008820564516129033,0.0005039052658100278,0.0010385270844867761,0.0010385270844867761
105,1149352.777777778,64,63,0.0796770717138652,0.0800729642340847,89.41934018461411,89.7668288556336,1.0,11.918450157764273,0.5363557690808057,0.007074279939363315,0.0005051780752715333,0.0003958925202195013,0.0003958925202195013
105,1194191.6666666665,64,62,0.15459446897023935,0.25476657961438054,150.74073707135022,279.71204814013413,0.7972972972972973,3.5039697591689256,0.18430201377137373,0.00684931506849315,0.0005267316302343956,0.1001721106441412,0.1001721106441412
105,1237175.0,64,63,0.06717301599409063,0.14546529455921914,70.18600479312082,133.076845691174,0.9384615384615385,7.34184581241937,0.29127033774798117,0.009986504723346829,0.0005396654074473826,0.0782922785651285,0.0782922785651285
105,1279141.6666666667,64,60,0.165560034600173,0.27585921804993574,162.50363779896205,270.77871633344944,0.855072463768116,5.920075499982888,0.16219657797631748,0.00912751677852349,0.0005367686527106817,0.11029918344976275,0.11029918344976275
105,1321341.6666666667,64,58,0.1610517251121982,0.3355924572859473,167.17328914076583,218.26243190882613,0.8142857142857143,6.062600607272201,0.22866401456510557,0.009278897136797455,0.0005300821627352239,0.17454073217374907,0.17454073217374907
105,1364030.5555555555,64,63,0.028443734660612924,0.029200235566795834,16.441126275718563,17.99870262556831,0.9841269841269841,9.859780840305941,0.45810403771725866,0.01001082251082251,0.0005409791723018664,0.0007565009061829102,0.0007565009061829102
105,1405866.6666666665,64,62,0.030085996326407228,0.031394741197504204,17.507892058960277,19.994501750016305,0.9841269841269841,9.74422876446241,0.4532826497797041,0.007078682276068609,0.0005443658138268917,0.0013087448710969764,0.0013087448710969764
105,1447491.6666666665,64,63,0.082136328394408,0.08652900246672411,86.56876305430575,88.0943642582814,0.96875,12.732583095572378,0.5058224515142412,0.008966244725738396,0.0005272871078302136,0.004392674072316111,0.004392674072316111
105,1490433.3333333335,64,64,0.03017047661183566,0.031877337894703,19.121746228120724,22.60902335242587,0.96875,11.846827057642114,0.5003482049400811,0.011789363374377783,0.0005238344683080147,0.0017068612828673377,0.0017068612828673377
105,1533666.6666666667,64,64,0.029988085582091407,0.031086296859545566,18.064169436813515,20.172500326312814,0.984375,11.620209736759763,0.4948607389873359,0.007581699346405229,0.0005227391531625719,0.0010982112774541586,0.0010982112774541586
105,1577022.222222222,64,64,0.10183725648871012,0.09996258813267754,115.86546445879459,113.9810682485353,0.984375,18.060667421698433,0.5469018522360277,0.008188331627430911,0.0005116398055768739,-0.0018746683560325744,0.0018746683560325744
105,1621275.0,64,62,0.12302014790640727,0.14754349754661214,121.04763059616151,98.87874169932991,0.9104477611940298,8.002248299336557,0.2728450828656709,0.008917197452229299,0.0005094243504839531,0.024523349640204875,0.024523349640204875
105,1665708.3333333333,64,62,0.06806381420035613,0.14949351530349975,71.95895634221681,149.93631511304238,0.9242424242424242,8.448359369695375,0.2943186068553614,0.008405568689256633,0.0005252100840336134,0.08142970110314361,0.08142970110314361
105,1708844.4444444445,64,63,0.08005972019530717,0.08532904172423496,84.73507452901991,92.28492855572664,0.9384615384615385,9.083646868995853,0.40763289081635246,0.012252346193952034,0.0005212405525149857,0.005269321528927784,0.005269321528927784
105,1752327.7777777778,64,63,0.031532228813634336,0.03154962555429626,19.893683969723885,20.97826248117266,1.0,10.638484568395324,0.5022688884995276,0.009878419452887538,0.0005064573309698658,1.7396740661923538e-05,1.7396740661923538e-05
106,975.0,64,62,0.11338698568090795,0.11138076628522071,47.96096207245318,48.67936943534106,0.9841269841269841,21.749239643534768,0.421397321282688,0.009407526020816653,0.00040024014408645187,-0.0020062193956872365,0.0020062193956872365
106,57472.22222222222,64,62,0.28342173314019076,0.2836712794933332,380.43829787057274,388.140289590073,0.9682539682539683,12.282058525984509,0.3794022861643766,0.00931484164769199,0.0004139072847682119,0.0002495463531424491,0.0002495463531424491
106,111819.44444444444,64,62,0.4374237323673412,0.4419537960410752,617.5880697478389,623.8435293212925,0.9523809523809523,6.564547819160791,0.3107168529036268,0.010322864045684164,0.0004391743522178305,0.004530063673733986,0.004530063673733986
106,163866.6666666667,64,63,0.23065381300660162,0.23394332188589598,338.84647040477466,343.8706559136256,1.0,15.543090502450328,0.32519575339349827,0.013620071684587814,0.00035835871707579287,0.003289508879294356,0.003289508879294356
106,227233.3333333333,64,64,0.1157420747320219,0.11653024258250931,122.34282498769603,123.92372044959416,0.984375,16.18107403800325,0.37232729512067425,0.012483936111621076,0.0003671071953010279,0.000788167850487409,0.000788167850487409
106,289002.7777777778,64,64,0.0600271620469646,0.05965491313410887,67.22622103691523,66.1664797042864,0.984375,20.855125350335648,0.39830624647682855,0.01770218674071503,0.00034704147145583897,-0.0003722489128557341,0.0003722489128557341
106,354344.44444444444,64,63,0.062312184483063894,0.0626010680737842,58.194492562069264,56.4315693999528,1.0,22.216842218037776,0.3876195412064495,0.013936037162765768,0.0003572704537334762,0.00028888359072030273,0.00028888359072030273
106,417738.8888888889,64,63,0.1495305368112818,0.1729213942811247,163.76202489129489,194.18275209915404,0.96875,20.27275542231833,0.4386231333692178,0.008053427617363976,0.00039277297721916735,0.0233908574698429,0.0233908574698429
106,475438.8888888889,64,63,0.06400816084321011,0.06298622957333665,44.741669673576354,45.02504751707432,1.0,25.559383371124085,0.43424658968579577,0.009910610182666148,0.0003885758694385079,-0.0010219312698734606,0.0010219312698734606
106,533836.1111111111,64,62,0.0661277245926902,0.06671685046529259,44.56329315452277,45.739626997744075,0.9841269841269841,25.169429243553335,0.4220658062721748,0.010756676557863502,0.0003708511032820323,0.000589125872602389,0.000589125872602389
106,594955.5555555555,64,63,0.07041876294663661,0.07128593429593462,44.80004471395191,45.497705308241635,1.0,24.917158125626976,0.4094804460461201,0.008966043494849293,0.00038146099561319857,0.0008671713492980071,0.0008671713492980071
106,654380.5555555556,64,63,0.0775719602227862,0.078041005604899,46.896939973668005,47.9823883249626,1.0,21.225131625739042,0.44697321678268015,0.007103393843725336,0.0003945551390806865,0.000469045382112801,0.000469045382112801
106,711402.7777777779,64,64,0.32626909747032107,0.33219005506765714,432.958521618013,441.26737581066556,0.953125,9.70030262187326,0.33983765209157607,0.008198641368001873,0.000468384074941452,0.005920957597336074,0.005920957597336074
106,759977.7777777778,64,63,0.3427873207456734,0.34262975914262556,473.557830804108,474.0396246000927,0.96875,11.053339414975733,0.37955560256189463,0.01061410159211524,0.0005053057099545225,-0.00015756160304786215,0.00015756160304786215
106,805083.3333333334,64,63,0.3840520710139109,0.38360022028696605,576.1389642552016,577.0116903603337,1.0,12.342428363808986,0.36733527990740433,0.00777676120768527,0.000457351932311914,-0.00045185072694486905,0.00045185072694486905
106,854861.1111111111,64,61,0.3714044988676484,0.3862086351058166,539.8971648620458,568.4043896302957,0.9206349206349206,9.780145281218797,0.2755784086237025,0.0078089113458888375,0.0004592422502870264,0.014804136238168175,0.014804136238168175
106,904505.5555555556,64,62,0.18259295765811456,0.18443399234613672,256.7342693637454,258.54218479467033,0.9841269841269841,18.66895730511638,0.42278439603829265,0.010347682119205299,0.0004138216428719222,0.0018410346880221584,0.0018410346880221584
106,959325.0,64,63,0.3052655674933065,0.30918795205431415,407.3206604997325,408.9316556450493,0.9365079365079365,11.685741430363015,0.33809029529351736,0.009741730856366107,0.00045300113250283127,0.00392238456100763,0.00392238456100763
106,1009347.2222222221,64,62,0.2165637132397322,0.20892774274134232,313.8976114499331,301.16158082557956,0.9841269841269841,15.77171406213064,0.407558147863706,0.006636250518457071,0.00041467965996267884,-0.007635970498389877,0.007635970498389877
106,1063613.8888888888,64,63,0.3887980030919693,0.39048368382356047,639.6558237671691,634.050414606028,0.96875,11.229295993573581,0.3242805169828332,0.011579980372914623,0.0003924646781789639,0.0016856807315911437,0.0016856807315911437
106,1121008.3333333335,64,62,0.41901091839909604,0.409829610107197,706.5333091972483,691.7889806635793,0.953125,11.913139793722925,0.3486385485541104,0.01377075739165654,0.00040494027130998176,-0.00918130829189906,0.00918130829189906
106,1177350.0,64,63,0.34605953923083743,0.3424277368521939,595.0412372887154,593.3720349025834,0.953125,11.97079594688974,0.3364528723984771,0.011098354381936472,0.0003826286588865506,-0.0036318023786435227,0.0036318023786435227
106,1236627.7777777778,64,64,0.32717148609910834,0.326939583207345,581.8638685545276,581.1330537590995,0.984375,11.581635667969028,0.3397077843735201,0.013619402985074627,0.00037306472673008767,-0.0002319028917633359,0.0002319028917633359
106,1297461.1111111112,64,62,0.05247257593426881,0.05134471346931469,61.981621677107746,60.2075501524428,0.9841269841269841,23.79407131188789,0.385648142294906,0.01342507132069139,0.0003355704697986577,-0.0011278624649541172,0.0011278624649541172
106,1364902.7777777778,64,64,0.07948750590684069,0.0800607129942841,53.33954003615612,53.67105056004387,0.984375,21.471985921809107,0.41781941357752206,0.014315281131424629,0.0003448870494912916,0.0005732070874434197,0.0005732070874434197
106,1430355.5555555555,64,64,0.3922021132697851,0.40224335495394914,663.8543954086892,652.638643008707,0.96875,8.507321879758004,0.3078592217459613,0.012222448563862294,0.0004073319755600815,0.010041241684164037,0.010041241684164037
106,1485597.2222222222,64,62,0.4134525546130504,0.4223405281061492,681.1481583474191,695.0137734258025,0.9841269841269841,9.458133314209457,0.343482086028515,0.012363486503193901,0.00041203131437989287,0.008887973493098777,0.008887973493098777
106,1540994.4444444445,64,64,0.36363466118228027,0.3690187950613905,550.9407345178265,533.1204284814938,0.9384615384615385,10.26531859705784,0.327213792637178,0.015308075009567547,0.0003826286588865506,0.005384133879110242,0.005384133879110242
106,1600513.888888889,64,65,0.3824075055193747,0.3888418593848278,509.04026191612076,497.50629203235343,0.9393939393939394,9.405762835569556,0.3422948861424416,0.013457164518574679,0.00037900322152738296,0.006434353865453102,0.006434353865453102
106,1659825.0,64,62,0.44778246607288336,0.4640194958563271,614.9666579922437,638.8909895547409,0.921875,8.384031138680202,0.29892546667598424,0.013709677419354839,0.00040314452731304173,0.016237029783443768,0.016237029783443768
106,1716322.2222222222,64,64,0.3887069762274164,0.3952579067550616,536.7050584752601,498.77290395759434,0.9538461538461539,8.220295101800271,0.32693581596470733,0.012989733919966478,0.00041893590280687055,0.006550930527645216,0.006550930527645216
107,263.8888888888889,64,63,0.060554071452282705,0.02925347289790737,48.6296687567692,25.693019384527286,0.96875,3.9835142166797315,0.20103042493360312,0.016743407283382167,0.0004184975936388366,-0.031300598554375336,0.031300598554375336
107,54377.77777777778,64,63,0.03361209296028623,0.03855421752981878,32.02518237035397,44.93445376831038,0.96875,3.7021286401538513,0.2125917115656409,0.017295269847884976,0.0004166666666666667,0.004942124569532552,0.004942124569532552
107,108713.88888888889,64,63,0.02918548761328557,0.029628555623528625,24.87523627083784,26.125525991893973,0.96875,3.350672993864476,0.20269842648922293,0.01372712146422629,0.0004158868787689748,0.00044306801024305426,0.00044306801024305426
107,163163.8888888889,64,63,0.028399030734865372,0.02979991452293689,24.133737298351946,26.203396584833122,0.96875,3.8728812387318676,0.2308113448663138,0.013729977116704805,0.00041597337770382697,0.0014008837880715164,0.0014008837880715164
107,217619.44444444444,64,63,0.041302535670753884,0.04219363772923751,48.547705704706786,49.384392383035845,0.984375,3.8551665036487646,0.2256052059869086,0.012098456403838132,0.0004171011470281543,0.0008911020584836254,0.0008911020584836254
107,271933.3333333333,64,63,0.028362148444963518,0.029009294879880833,24.36979478063192,24.969126677418924,0.96875,3.6292281824010826,0.19620985633693636,0.019138755980861243,0.00041597337770382697,0.0006471464349173152,0.0006471464349173152
107,326422.2222222222,64,63,0.028300229127334927,0.029346414162020475,23.6729634714786,25.13179371814347,0.96875,3.4831133481832492,0.2062500739963114,0.016441207075962538,0.0004161464835622139,0.0010461850346855477,0.0010461850346855477
107,380897.22222222225,64,63,0.027555345487777768,0.02808847940219303,24.089864778089453,25.81169447047919,0.96875,3.6617873013490527,0.21002704463862826,0.015400624349635796,0.0004161464835622139,0.0005331339144152604,0.0005331339144152604
107,435372.2222222222,64,63,0.028068814929508485,0.028880218870107107,24.686908450129035,26.281036448561338,0.96875,3.6407162423179216,0.17769256806194178,0.01581356637536413,0.00041605991262741833,0.000811403940598622,0.000811403940598622
107,489838.8888888889,64,63,0.03534390004009397,0.03563423362711231,38.03628871564184,37.657133609477945,0.96875,3.483965069172561,0.21422848795937702,0.010002083767451552,0.0004166666666666667,0.00029033358701834044,0.00029033358701834044
107,544227.7777777778,64,63,0.04602100769033563,0.046060779993568224,55.427720306830246,55.09799225550203,0.96875,3.553068829819339,0.20244411157432282,0.016485809682804674,0.00041727519298977677,3.977230323259223e-05,3.977230323259223e-05
107,598530.5555555556,64,63,0.04252036812526469,0.04175813095435109,50.99200123123597,49.54914477522373,0.96875,3.4809625383297944,0.20912916548359778,0.00813856427378965,0.00041727519298977677,-0.0007622371709136017,0.0007622371709136017
107,652827.7777777778,64,63,0.029156605089299133,0.030660830038841437,24.39276469234111,26.665845157345807,0.96875,3.839858462176209,0.2250909540252156,0.00956738768718802,0.0004158868787689748,0.0015042249495423043,0.0015042249495423043
107,707277.7777777779,64,63,0.045435083307022964,0.04696874807677978,41.80681329158107,46.14246427790044,0.953125,3.7969193571405215,0.23088491705317782,0.009400459578023814,0.0004177109440267335,0.0015336647697568179,0.0015336647697568179
107,761486.1111111111,64,63,0.03678879667292152,0.0373057101984578,31.93178025421941,34.90544920874236,0.96875,3.9482432373060816,0.2454289425782995,0.010455876202425763,0.000418147606104955,0.000516913525536275,0.000516913525536275
107,815638.8888888889,64,63,0.05257675119956132,0.05616397526879363,48.06464475751717,55.77789982441972,0.96875,4.327866169185351,0.24850388449567434,0.007339064793457748,0.0004192872117400419,0.0035872240692323143,0.0035872240692323143
107,869641.6666666666,64,63,0.0547708014053365,0.05910993308565836,51.12849361579404,58.557792638388136,0.96875,4.2157792265549485,0.2553959153850056,0.008627946127946129,0.00042078687144961075,0.004339131680321857,0.004339131680321857
107,923452.7777777778,64,63,0.05006715188470919,0.0521864694434324,46.23143604748512,50.94802502407223,0.96875,4.1722380069700735,0.24809721693830145,0.007751937984496124,0.00041893590280687055,0.002119317558723209,0.002119317558723209
107,977505.5555555556,64,62,0.06945426164078267,0.07271926885111132,73.29384866206945,78.52742362431798,0.96875,3.7739279990491195,0.23192511469655402,0.009300359332065102,0.00042265426880811494,0.0032650072103286576,0.0032650072103286576
107,1031111.1111111111,64,63,0.052257024732548465,0.055862727242467596,52.96373578070636,60.28927543313354,0.96875,3.7084142151476778,0.2230039531974971,0.010947368421052631,0.0004209640075773521,0.00360570250991913,0.00360570250991913
107,1084911.111111111,64,63,0.050967586539451146,0.05610578720241778,53.37685835983258,62.96715298300033,0.96875,3.832049473882565,0.2109682321950561,0.012225969645868466,0.00042149631190727084,0.0051382006629666355,0.0051382006629666355
107,1138647.222222222,64,63,0.06381724637645027,0.0694458375713938,62.69930388832887,74.53928257107134,0.96875,3.487039404126471,0.18110557485597814,0.02063390767921719,0.0004253509145044662,0.005628591194943536,0.005628591194943536
107,1191941.6666666665,64,63,0.05152571406802343,0.05524678443744896,60.04072360183484,67.76720833892301,0.96875,3.5245287727841985,0.1907119454901681,0.016115529510255338,0.0004184975936388366,0.0037210703694255318,0.0037210703694255318
107,1246100.0,64,63,0.032151253647536224,0.03996697736431281,30.970223106019255,47.40568164555124,0.96875,3.4903626341060603,0.21889448833411906,0.011673962893475089,0.00041684035014589413,0.007815723716776586,0.007815723716776586
107,1300458.3333333333,64,63,0.028768140750662956,0.028282395615994202,24.241787829692104,24.39125042774677,0.96875,3.5621720307998817,0.22444494230247466,0.011855241264559068,0.0004158868787689748,-0.00048574513466875455,0.00048574513466875455
107,1354908.3333333333,64,63,0.05093772423582738,0.05189744344618121,50.63318707737694,53.73132676782214,0.96875,3.5792449004634665,0.16756240713795564,0.016179869720529524,0.0004201680672268908,0.0009597192103538293,0.0009597192103538293
107,1408822.2222222222,64,63,0.07286379396563263,0.07721575013990264,76.4959334704984,85.05855012015724,0.96875,3.7961753286266156,0.2191123447799012,0.009829059829059829,0.0004272591326639607,0.004351956174270019,0.004351956174270019
107,1461891.6666666667,64,63,0.04362038908556412,0.04976626357465123,45.130789182251014,56.43156939996486,0.96875,3.4846957740483493,0.22007657813887088,0.012788259958071278,0.00041919932928107315,0.006145874489087107,0.006145874489087107
107,1515969.4444444445,64,63,0.04877969172965878,0.058415169596177104,54.09136848855272,72.33361148176594,0.953125,3.502139110882299,0.22509783156290886,0.02274641954507161,0.0004211412929037692,0.009635477866518326,0.009635477866518326
107,1569802.7777777778,64,63,0.06659620315366982,0.07168454294604926,69.62253150853056,78.66200926553128,0.96875,3.994820226490376,0.24458131752984888,0.023152081563296515,0.00042471862391165854,0.005088339792379437,0.005088339792379437
107,1623197.2222222222,64,63,0.028694304899655746,0.029745746833802534,24.459001042168747,26.16449025810831,0.96875,3.685653697676495,0.23682810515614888,0.02288329519450801,0.00041597337770382697,0.0010514419341467879,0.0010514419341467879
107,1677688.8888888888,64,63,0.052848967848281705,0.05656084067142152,51.80796380384836,56.881087171436285,0.96875,3.9014777512585352,0.26687547252767424,0.0203910027328148,0.0004203446826397646,0.0037118728231398113,0.0037118728231398113
107,1731575.0,64,63,0.061727279037121933,0.07042778231178172,66.87728081316155,83.38938743475165,0.96875,4.271693411412603,0.28183127985541656,0.022727272727272728,0.00042471862391165854,0.008700503274659786,0.008700503274659786
108,244.44444444444443,64,57,0.1354611197852472,0.1567450819274507,222.53590092458884,269.4972905394276,0.7222222222222222,7.120491425259172,0.3145410127135859,0.004095563139931741,0.0003412386964681795,0.021283962142203516,0.021283962142203516
108,66769.44444444445,64,64,0.07446280636852887,0.11808680438079207,70.27372238147021,151.92345371389746,0.725,6.438058635127567,0.36871348984213664,0.006527415143603133,0.00032631750693424703,0.0436239980122632,0.0436239980122632
108,136136.11111111112,64,62,0.060188431468001236,0.07366036097549233,71.98316515209216,103.79474317807953,0.3684210526315789,7.494511939276011,0.557069474557733,0.0074614491792405905,0.0003315649867374005,0.013471929507491098,0.013471929507491098
108,204455.55555555556,64,64,0.0898097376910293,0.119897025865957,129.06618244303988,163.07901392382757,0.9538461538461539,5.47882274567213,0.5534424731770943,0.006421867281409518,0.00032927230819888045,0.0300872881749277,0.0300872881749277
108,273200.0,64,63,0.09961479118664981,0.10022086271455032,112.30540938928978,114.91154138722753,0.9841269841269841,6.860362108024136,0.5434619057219905,0.014354865631781006,0.0003337783711615487,0.0006060715279005008,0.0006060715279005008
108,340952.7777777778,64,64,0.05412797489430574,0.05444828089902996,65.43630183447043,65.20517224368497,0.984375,5.712050221791604,0.5434121136607749,0.011136586963642319,0.0003274930407728836,0.0003203060047242204,0.0003203060047242204
108,410175.0,64,63,0.054773486053584904,0.1136462988824528,62.304053652648676,132.25103213024587,0.96875,5.532624339816214,0.5135774765034392,0.013053536021150032,0.00033041467041136624,0.058872812828867895,0.058872812828867895
108,478683.3333333333,64,64,0.14713286276745216,0.1600330004117801,242.24532131483267,230.71979921058448,0.984375,9.34883997858184,0.49542109623010927,0.009157509157509158,0.000332944897619444,0.01290013764432793,0.01290013764432793
108,546675.0,64,63,0.12300771394557415,0.1451672420583987,182.74996792500787,219.74852799382214,0.9538461538461539,8.375722371438542,0.5069823878358727,0.009375,0.000328893274132544,0.022159528112824553,0.022159528112824553
108,615938.8888888889,64,63,0.07635728147872553,0.0768802312650309,94.18845763451016,96.07087372675724,1.0,9.058169045079694,0.510170752333168,0.00887865833607366,0.0003287851389117212,0.0005229497863053628,0.0005229497863053628
108,684838.8888888889,64,63,0.14467533084332365,0.1445217802318123,234.2308646804208,234.64398193811587,0.96875,9.345377191835393,0.44404681730841916,0.012527142141306163,0.00033400133600534405,-0.00015355061151134386,0.00015355061151134386
108,752744.4444444444,64,64,0.07083058837441009,0.1208167145817037,73.19189820305246,116.53767837779029,0.9538461538461539,9.60692841630743,0.5241239252378607,0.006175930562510432,0.0003337783711615487,0.04998612620729362,0.04998612620729362
108,820530.5555555556,64,64,0.08527203262020733,0.11105704853441922,140.24916312716135,161.14382146707362,0.9393939393939394,6.714934604925151,0.5062854626416484,0.0067246186649171725,0.00032797638570022957,0.025785015914211895,0.025785015914211895
108,889616.6666666666,64,64,0.11740580804594193,0.13091955866891095,190.2942919867206,160.95711786888913,0.9242424242424242,13.642717642274764,0.504714480666552,0.018768521567336188,0.0003292181069958848,0.013513750622969015,0.013513750622969015
108,958830.5555555555,64,62,0.05274446244401073,0.040444074367775355,63.73774391989999,46.56989648651021,0.9841269841269841,5.313075661088637,0.5259004723780815,0.013884297520661157,0.0003305238803503553,-0.012300388076235375,0.012300388076235375
108,1027516.6666666666,64,63,0.07216235045276004,0.0904140603021463,49.794230111999816,111.67445179077599,0.8088235294117647,4.5257494135041165,0.5466227460423843,0.004199379222201935,0.0003650967506389193,0.01825170984938626,0.01825170984938626
108,1089527.7777777778,64,63,0.1552202790134681,0.15302802624158726,173.98543874489118,171.54234596605266,0.9841269841269841,6.137713769519314,0.5190279596283152,0.007070340826686004,0.00036251586006887804,-0.0021922527718808427,0.0021922527718808427
108,1152105.5555555555,64,64,0.12453193321809436,0.14747159251894656,180.9483595976743,191.2578847632759,0.9242424242424242,10.824902819179266,0.49022441624302926,0.022748965956092906,0.0003181167488468268,0.022939659300852205,0.022939659300852205
108,1223400.0,64,61,0.10728142723286646,0.1491862214393326,149.54464269675,195.35622822002088,0.8309859154929577,4.812838610553426,0.464219252789484,0.006596541272954181,0.00035650623885918,0.041904794206466145,0.041904794206466145
108,1286908.3333333333,64,63,0.043967822864981874,0.04217139014976697,45.63809290157129,45.047667487098124,0.96875,3.8493845842483956,0.545206756908374,0.007295066231522365,0.00038387715930902113,-0.0017964327152149018,0.0017964327152149018
108,1345933.3333333335,64,63,0.10385244340126368,0.07839787051484244,158.05602011887822,84.30064113229705,0.9538461538461539,3.7859473852299934,0.5045811379317233,0.00842911877394636,0.0003830683777054204,-0.025454572886421237,0.025454572886421237
108,1405097.2222222222,64,62,0.13950211873686053,0.14091767549069947,225.57920272605367,224.78816470139125,0.9841269841269841,5.345546908879275,0.541965973012581,0.007778581765557163,0.00036172906493036716,0.001415556753838948,0.001415556753838948
108,1467350.0,64,64,0.09481681907777015,0.09991684898844574,154.55024289427195,163.24487264923144,0.984375,6.854714134517569,0.5620652261370623,0.008579933461740501,0.00035014005602240897,0.005100029910675596,0.005100029910675596
108,1532052.7777777778,64,63,0.08654864245480108,0.08808189920519953,112.6810017886003,114.4051054082005,0.96875,6.471256216647049,0.5840124880866917,0.007531380753138075,0.00033467202141900936,0.0015332567503984484,0.0015332567503984484
108,1599744.4444444445,64,63,0.10996343975518313,0.16632601442317319,179.93068048830096,223.6178477130829,0.8656716417910447,13.605400700356919,0.5389268970640062,0.011711711711711712,0.0003602954422626554,0.05636257466799005,0.05636257466799005
108,1662627.7777777778,64,63,0.09730260869068086,0.18599436722747428,55.87163667678708,247.6907545495739,0.4479166666666667,3.936226741387295,0.22201909291050764,0.009119130772215754,0.0003879728419010669,0.08869175853679342,0.08869175853679342
108,1721230.5555555555,64,59,0.06804440795758113,0.1302031091242702,91.40698527679935,192.03427839839165,0.5930232558139535,6.066987301703281,0.28766774847391563,0.00996607294317218,0.00042399830400678397,0.06215870116668906,0.06215870116668906
109,308.33333333333337,64,63,0.054532918405258604,0.05481190000002808,40.27082500860572,40.22100246018793,0.9384615384615385,5.925773278587694,0.4314958199143217,0.011269928532160528,0.0005496015388843089,0.0002789815947694743,0.0002789815947694743
109,41550.0,64,63,0.05279175015514033,0.053739701259420236,54.45253578964783,56.37738641157087,0.96875,7.222447535981455,0.4595911646113875,0.01017293997965412,0.0005085176709890668,0.0009479511042799066,0.0009479511042799066
109,86102.77777777778,64,62,0.052973172721919114,0.05347372471041315,55.61824420109324,56.4980230043342,0.9841269841269841,7.71042078133714,0.4756764506751798,0.012734082397003745,0.0004992511233150275,0.0005005519884940385,0.0005005519884940385
109,131433.33333333334,64,63,0.03503744972485622,0.03519348697720149,23.657186752986085,25.212733682011567,0.96875,7.36259069959755,0.4735344059615616,0.013716027432054865,0.0005078720162519045,0.00015603725234526744,0.00015603725234526744
109,176027.77777777778,64,63,0.0333867354762685,0.03227879326654408,23.543810895043993,21.788162214275445,1.0,7.36290932325806,0.4721385416150673,0.011097099621689786,0.0005042864346949068,-0.001107942209724419,0.001107942209724419
109,220972.22222222222,64,63,0.05173140794037593,0.06239524132894676,44.09021019236063,59.506927285636976,0.96875,7.360076962836231,0.46257521387564043,0.011526639344262296,0.0005121638924455825,0.010663833388570833,0.010663833388570833
109,265205.55555555556,64,64,0.0354546618827822,0.036342407264938294,27.049135196070452,29.15376444709075,0.984375,7.948954302888388,0.4838467511212862,0.016224188790560472,0.0004915212582944212,0.0008877453821560938,0.0008877453821560938
109,311272.22222222225,64,62,0.057164894208114554,0.0572632894225645,26.517090962282477,26.925634979908263,0.9841269841269841,8.852281554403945,0.45777652072184,0.010863942058975685,0.000517196793379881,9.839521444994503e-05,9.839521444994503e-05
109,355044.44444444444,64,63,0.037931445864549634,0.0390606414602914,23.968152239672342,26.6658451573482,0.96875,7.492733840742074,0.4754706257329647,0.013650151668351871,0.0005054334091483447,0.001129195595741768,0.001129195595741768
109,399880.5555555555,64,63,0.07144863593619223,0.07023121265458981,79.26682025480417,77.18471832403783,0.96875,7.32770545905538,0.4725707827391067,0.012572290671360321,0.0005027652086475615,-0.0012174232816024172,0.0012174232816024172
109,444894.44444444444,64,63,0.035020777738514544,0.035270742773094665,29.052301811413663,29.148127928575736,0.96875,7.748309794207521,0.4892316636861434,0.013399503722084368,0.0004961548002976929,0.0002499650345801213,0.0002499650345801213
109,490525.0,64,63,0.06362430303390072,0.06536473408815914,67.241954804001,69.45979360109084,0.96875,7.497661024795927,0.4805617641001941,0.014143920595533498,0.0004961548002976929,0.0017404310542584178,0.0017404310542584178
109,536161.1111111111,64,64,0.03535407735065264,0.0365715109938684,24.782506741287417,27.234071557737867,0.984375,7.72789506930966,0.4947921622564974,0.009297773427942257,0.0004892367906066536,0.0012174336432157554,0.0012174336432157554
109,582433.3333333333,64,63,0.06056455776444684,0.07397754061201242,67.22159275750778,85.83350561397017,0.96875,7.636520589631339,0.4810002787040743,0.010805500982318271,0.0004910385465259023,0.013412982847565584,0.013412982847565584
109,628583.3333333334,64,63,0.042902017522623424,0.042102383276003214,43.553457084995635,41.78621653264059,0.984375,7.594885389885838,0.495800106251466,0.010552147239263805,0.0004906771344455348,-0.0007996342466202108,0.0007996342466202108
109,674780.5555555556,64,63,0.04876481225695612,0.048847174936011185,56.682125939609804,56.916895224857974,1.0,7.899377056725709,0.5002842642411157,0.01340809361287177,0.0004874482086278333,8.236267905506467e-05,8.236267905506467e-05
109,721216.6666666667,64,62,0.034673274166381066,0.0345051963212754,26.088890873380223,25.462679320869366,0.9841269841269841,7.7555795054509575,0.4957631268354622,0.01352015732546706,0.0004915212582944212,-0.0001680778451056686,0.0001680778451056686
109,767288.8888888889,64,63,0.030056104238529946,0.030333160904646994,23.04157066031547,24.012415921746584,0.984375,7.959120344739968,0.49968280837907353,0.01054179946065212,0.0004901960784313725,0.00027705666611704816,0.00027705666611704816
109,813544.4444444445,64,64,0.038834543260914255,0.051757551602532946,33.89792170587356,54.78007372130951,0.984375,7.992967318633647,0.5026064165747207,0.01565940787863959,0.0004892367906066536,0.012923008341618691,0.012923008341618691
109,859825.0,64,62,0.032073920750929574,0.03251362323436238,24.346803198084704,24.339684717670412,0.9841269841269841,7.762554009680211,0.4968617533134138,0.011271747120803725,0.0004899559039686428,0.0004397024834328078,0.0004397024834328078
109,906022.2222222222,64,62,0.06235476681467469,0.06191128986300002,70.48150376912501,69.82889361237144,0.9841269841269841,7.520581625904137,0.4794921737066872,0.01116348300669809,0.000496031746031746,-0.00044347695167466783,0.00044347695167466783
109,951705.5555555555,64,64,0.03415117518307756,0.03470823047533124,25.52466186262953,26.297911513842934,0.984375,7.964978761629307,0.498993444450151,0.01224589762429586,0.0004897159647404506,0.0005570552922536803,0.0005570552922536803
109,997952.7777777778,64,63,0.039856504007012135,0.03965403262587215,37.279485722805155,36.75355930931753,0.96875,7.887156069823199,0.4988732770090465,0.010034263338228096,0.0004893564962074871,-0.00020247138113998336,0.00020247138113998336
109,1044205.5555555555,64,62,0.06326041102167401,0.05814611722962481,66.0486964795675,57.89235151207123,0.9841269841269841,7.7793137013331135,0.49882853592538656,0.012306177701206006,0.0004921259842519685,-0.005114293792049203,0.005114293792049203
109,1090275.0,64,64,0.07154509181896715,0.07015643256938456,86.15156871302763,83.96492344788078,0.984375,7.408848920736581,0.4888542389313504,0.012080867850098619,0.0004929751047572097,-0.0013886592495825911,0.0013886592495825911
109,1136225.0,64,63,0.04986689889708865,0.07496537744880193,51.92553754771396,86.97713820936089,0.953125,7.742158120442899,0.4857072083070559,0.01257086517130885,0.0004928536224741252,0.025098478551713273,0.025098478551713273
109,1182150.0,64,64,0.03046224219456452,0.03186965064155383,23.92657692261583,26.449923829141035,0.984375,7.905867952298067,0.4959205347152466,0.013553474618038443,0.0004927322000492732,0.001407408446989309,0.001407408446989309
109,1228116.6666666665,64,63,0.033244231482474684,0.03317393019185632,24.400416524396658,24.805392933303985,0.96875,7.708114654587008,0.5003676883463842,0.013070283600493218,0.0004930966469428008,-7.030129061836449e-05,7.030129061836449e-05
109,1274072.2222222222,64,62,0.04170312355464377,0.04320787764175205,39.35018269003927,40.96136693624588,0.9841269841269841,7.644353133150184,0.49137761445502826,0.014342235410484669,0.0004944375772558715,0.001504754087108283,0.001504754087108283
109,1319908.3333333333,64,63,0.030733711465634573,0.029885610559673332,24.633918653543713,23.280025825918454,1.0,7.561431074555382,0.48457523464554336,0.014140411808484247,0.000496031746031746,-0.000848100905961241,0.000848100905961241
109,1365605.5555555555,64,63,0.03245441464863288,0.03268046187861802,23.798800708727853,25.61359718713301,1.0,7.748602809321255,0.49299218373094966,0.01636093207734259,0.0004956629491945477,0.0002260472299851421,0.0002260472299851421
109,1411291.6666666667,64,63,0.042724233668485184,0.03767698130657902,41.38344603505477,36.363442250475536,1.0,7.74981339649719,0.49474299650683307,0.013379583746283449,0.0004954173891503591,-0.005047252361906167,0.005047252361906167
109,1457122.2222222222,64,64,0.04749534203502855,0.04798356466966624,24.31099529499135,26.412002771969558,0.984375,6.402087961264876,0.46048362115399666,0.009913905557004957,0.0005216484089723526,0.0004882226346376861,0.0004882226346376861
109,1500536.111111111,64,63,0.043813554358345254,0.04470230047371007,43.46764865379259,44.91177677780112,0.96875,7.940125406976519,0.49973951592075855,0.010615199034981907,0.000482392667631452,0.0008887461153648177,0.0008887461153648177
109,1547480.5555555555,64,62,0.059250933273162255,0.12464627240907482,33.03894796800985,121.74096804823849,0.953125,5.827297715498823,0.44348129959325966,0.014252990582845508,0.0005089058524173028,0.06539533913591256,0.06539533913591256
109,1591986.111111111,64,62,0.04958438420615412,0.059635838195257355,50.66267355201045,65.56030755994064,0.9841269841269841,6.745560059197182,0.40123167858057557,0.014684287812041116,0.0004893564962074871,0.010051453989103239,0.010051453989103239
109,1638244.4444444445,64,63,0.05542078411659859,0.06228568498896438,62.83413272873814,73.25723533934433,0.96875,7.14550365177394,0.39828431320237223,0.014603782619104621,0.0004786979415988511,0.006864900872365784,0.006864900872365784
109,1685555.5555555557,64,63,0.042751344050263256,0.05395120506613188,43.00711230106735,60.03528213075854,0.96875,7.365660761306997,0.40537920606355227,0.017409968995945622,0.0004768717215069146,0.011199861015868624,0.011199861015868624
109,1733063.8888888888,64,62,0.04011027428294438,0.040313067461986006,40.24300191968608,39.937170680425325,0.9841269841269841,7.453446785248753,0.40827980812464604,0.014523809523809524,0.00047607712449416806,0.00020279317904162847,0.00020279317904162847
111,547.2222222222223,64,62,0.03280969356517735,0.03228408121764377,35.02466844157852,35.69188538145236,1.0,8.082054881241813,0.32352103939748605,0.008213552361396304,0.0004105933073290905,-0.00052561234753358,0.00052561234753358
111,55750.0,64,64,0.03281743140952816,0.03333647835832084,32.717199960232065,33.50469938893527,0.984375,3.857272110540607,0.2866414795187846,0.014510278113663845,0.00040298206729800525,0.0005190469487926785,0.0005190469487926785
111,111938.88888888888,64,63,0.03452299595803669,0.03509067813727233,35.820445850101855,37.002176975625105,1.0,5.750449865344826,0.28656709889643417,0.007524913565182021,0.00040666937779585197,0.0005676821792356401,0.0005676821792356401
111,167602.77777777778,64,64,0.03525398032585456,0.03421551222963355,32.11443782298322,30.922236806485518,0.984375,5.2199707760446765,0.2786479927165146,0.010374761803938174,0.0004233700254022015,-0.001038468096221011,0.001038468096221011
111,221108.3333333333,64,63,0.032397561159491335,0.03157256408221411,33.151760547505404,31.109243069891082,0.9538461538461539,5.145774507383941,0.2502011552701175,0.00513663447709061,0.0004108463434675431,-0.0008249970772772272,0.0008249970772772272
111,276200.0,64,63,0.03261969300449696,0.03210356552271804,34.00239525848442,33.657359011882555,0.96875,5.013134024471577,0.28176486028357844,0.009656872816930347,0.0004108463434675431,-0.0005161274817789135,0.0005161274817789135
111,331305.55555555556,64,63,0.03301319500450713,0.0344404060809579,34.21220411481874,36.614708947798135,0.96875,5.764748057993221,0.2984379264090892,0.010065735414954808,0.00041076196344218524,0.001427211076450767,0.001427211076450767
111,386472.22222222225,64,63,0.032590317032273476,0.032959786789948736,31.48631279253521,31.46739372176778,0.96875,5.850901566760215,0.30137771821308823,0.012443900448796409,0.0004079135223332653,0.0003694697576752601,0.0003694697576752601
111,441997.2222222222,64,63,0.03252369697689009,0.03318162762345511,33.03518091393471,35.138154780510604,0.96875,7.3165616337253745,0.32664300037742383,0.012925728354534264,0.00041025641025641023,0.0006579306465650248,0.0006579306465650248
111,497194.44444444444,64,63,0.04998647245025042,0.05559131325445998,56.46213704028709,65.83038339181944,0.96875,5.798846863345573,0.29597763589134657,0.010088532015647519,0.0004116920543433512,0.00560484080420956,0.00560484080420956
111,552166.6666666666,64,63,0.028395798082550914,0.02888287671115902,29.323057421345634,30.313138960423263,0.96875,3.7026990231205317,0.3098493570351105,0.011816838995568686,0.0004219409282700422,0.00048707862860810497,0.00048707862860810497
111,605819.4444444445,64,63,0.05708582053641835,0.058162448041606335,71.26030915378286,72.99254160106707,0.96875,5.04035589331035,0.28346308577018814,0.008941567893532959,0.0004158004158004158,0.0010766275051879853,0.0010766275051879853
111,660286.1111111111,64,63,0.03319724729657774,0.03244095821308641,36.06800570370582,34.04856183665848,0.96875,5.710023592956974,0.2733482515714917,0.008186655751125664,0.0004092490280335584,-0.0007562890834913322,0.0007562890834913322
111,715608.3333333334,64,63,0.039945993516424715,0.036103328277601154,40.20587451704585,34.13820278642729,0.96875,6.410865753312784,0.27435232996201286,0.010057471264367816,0.0004104247896572953,-0.00384266523882356,0.00384266523882356
111,770836.1111111111,64,63,0.03810563032226558,0.03728066526039065,37.421097131872806,37.60298960794685,1.0,6.112483856788714,0.28731779066577334,0.006740196078431373,0.0004084133142740453,-0.0008249650618749257,0.0008249650618749257
111,826272.2222222222,64,63,0.03298539573111072,0.03259692517048423,35.54491328186208,34.108348646215795,0.96875,6.917100912941967,0.29812038389769535,0.00960133583802964,0.00041736227045075126,-0.00038847056062649155,0.00038847056062649155
111,880519.4444444444,64,63,0.038604309599025874,0.03813848785293384,37.42109713187211,36.6147089478083,0.9841269841269841,5.253388150896941,0.31757081315041336,0.008644317942230655,0.00042158516020236085,-0.0004658217460920336,0.0004658217460920336
111,934275.0,64,63,0.0352473588221169,0.03411498633931539,33.916273676109824,32.044825256202635,0.96875,5.683593241342796,0.2663110976740538,0.011850311850311851,0.0004157139887757223,-0.0011323724828015136,0.0011323724828015136
111,988763.8888888889,64,63,0.03453288111952376,0.035681118037200456,32.247857803820885,33.77821167720666,0.96875,8.092609061627794,0.29949756900788854,0.009465020576131687,0.0004114379757251594,0.0011482369176766954,0.0011482369176766954
111,1043822.2222222224,64,63,0.03040468017128059,0.03110768995206858,31.110551070247492,32.14005525892149,1.0,8.174126036158931,0.31216860856526146,0.012416039079991859,0.000407000407000407,0.0007030097807879908,0.0007030097807879908
111,1099466.6666666667,64,63,0.030698081476110493,0.031550584558067085,31.634187582010295,32.73674620701101,0.96875,6.7410279050041995,0.2865861760884293,0.009070751864543439,0.00040306328093510683,0.0008525030819565918,0.0008525030819565918
111,1155686.1111111112,64,62,0.03439183125133888,0.13293514791351424,33.11795712347782,164.97308207075042,0.9682539682539683,10.269811157442152,0.2959539156948812,0.02315369261477046,0.0003991219317501497,0.09854331666217536,0.09854331666217536
111,1212405.5555555555,64,64,0.03406270818788356,0.03509161175472751,30.76864440133134,33.02259224871979,0.984375,3.9035910707230554,0.30798588365208296,0.012219959266802444,0.00040724903278354713,0.0010289035668439514,0.0010289035668439514
111,1268022.222222222,64,63,0.03471581923009294,0.03460824892172677,30.135182617372738,30.813114502611267,0.96875,4.677502311424896,0.2882137370267208,0.0078125,0.0004222081486172683,-0.00010757030836616721,0.00010757030836616721
111,1321650.0,64,63,0.04321178582193874,0.042666380176276684,33.77102130118356,31.885476554837226,0.96875,4.525981555746163,0.24439596047725906,0.007868991918332624,0.00042526047203912394,-0.0005454056456620573,0.0005454056456620573
111,1374875.0,64,63,0.03870987552965605,0.03678208500226905,35.51338785371191,31.109243069871248,0.96875,5.175231153717907,0.30278591365248514,0.006898086337338674,0.0004449388209121246,-0.0019277905273870008,0.0019277905273870008
111,1425822.2222222222,64,62,0.035306681336676554,0.03615774915381513,29.29120875607153,31.56490379130421,0.9841269841269841,8.251523049150693,0.33583299120079485,0.007725321888412017,0.00042909246942716153,0.000851067817138576,0.000851067817138576
111,1478675.0,64,63,0.03483242566037172,0.03655624753669765,32.55322205297411,35.6561899176014,0.96875,6.942743666976395,0.31674335310738644,0.0060416666666666665,0.00041657987919183504,0.0017238218763259289,0.0017238218763259289
111,1533091.6666666667,64,63,0.03318245575395204,0.03260503384164707,31.168501853092998,31.885476554774506,0.96875,5.421903566441151,0.29082209945792437,0.0105999576001696,0.000423908435777872,-0.0005774219123049693,0.0005774219123049693
111,1586555.5555555557,64,62,0.03722315395875627,0.036652445505472364,30.649091114449398,33.320716122532104,0.9841269841269841,5.504029597532939,0.2818009767107521,0.007448393275164928,0.000425531914893617,-0.0005707084532839066,0.0005707084532839066
111,1639733.3333333333,64,62,0.038595822252227255,0.03912729762076359,32.034896096368264,32.34280041905281,0.9841269841269841,5.874100006074386,0.29220092304058676,0.008071367884451997,0.00042471862391165854,0.0005314753685363369,0.0005314753685363369
111,1693061.1111111112,64,63,0.04974637215845039,0.04956696993249516,31.941522384635032,30.34672693629187,0.96875,5.223368205355101,0.29666090544134316,0.008186126669538992,0.0004307559767391773,-0.00017940222595522887,0.00017940222595522887
111,1745602.777777778,64,63,0.050481954765566904,0.05015392572717361,56.26783535118393,53.44617708043055,0.96875,4.306195109745172,0.26667528844725713,0.008119079837618403,0.00045095828635851183,-0.000328029038393296,0.000328029038393296
112,344.44444444444446,64,64,0.023984320647868693,0.025436315250569677,23.64666309287805,26.221574889775873,0.984375,6.67397068959601,0.4191380258865227,0.0055569588279868656,0.000505050505050505,0.0014519946027009845,0.0014519946027009845
112,45191.66666666667,64,64,0.017372031992601296,0.018292903080016142,16.45625847060945,17.909015137178802,0.984375,4.979708028567233,0.41929757740298557,0.005579507988840984,0.0005070993914807302,0.0009208710874148464,0.0009208710874148464
112,89844.44444444445,64,63,0.01883585216521261,0.019500810359556756,16.39944074383121,17.598045385837484,0.96875,5.348809064296995,0.420912796793192,0.0056022408963585435,0.0005091649694501018,0.0006649581943441452,0.0006649581943441452
112,134341.66666666666,64,63,0.017427644479446152,0.01675482599611457,15.2145154862521,14.273899658067068,0.9841269841269841,7.060639609786168,0.42379410199021084,0.00352024138798089,0.0005027652086475615,-0.0006728184833315817,0.0006728184833315817
112,179397.22222222222,64,64,0.020848557593467352,0.021913083724404755,19.351415965778962,21.095421118509158,0.984375,7.427156361693602,0.4241369915893031,0.005480817140009965,0.00049813200498132,0.001064526130937403,0.001064526130937403
112,224852.77777777778,64,63,0.028466218645134017,0.02919826054499394,17.72688166970927,18.61088819650654,0.96875,4.761963955900419,0.42763879836205193,0.007031642390758413,0.0005021340697966357,0.0007320418998599219,0.0007320418998599219
112,269938.8888888889,64,63,0.022117696272849707,0.023460260526799295,19.68615764610213,21.647440641597015,1.0,3.879129074554674,0.42363394633967455,0.009992313604919293,0.0005122950819672131,0.001342564253949588,0.001342564253949588
112,314180.55555555556,64,64,0.022819077244048896,0.02371380606271209,20.09287475920803,21.047855283195624,0.984375,4.7115469727781285,0.4210251447505555,0.00677710843373494,0.0005018820577164366,0.0008947288186631937,0.0008947288186631937
112,359313.8888888889,64,63,0.014406112528890387,0.015644793666147436,14.57533062552136,16.646084451616876,0.96875,5.07911806357983,0.4328059962979203,0.00510073960724305,0.0005099439061703213,0.0012386811372570496,0.0012386811372570496
112,403738.8888888889,64,62,0.02216107168530024,0.022833170355282803,19.896811661574723,21.05420360343611,0.9841269841269841,6.872866188592572,0.4379504288621939,0.004745254745254745,0.0004993757802746567,0.0006720986699825619,0.0006720986699825619
112,449086.1111111111,64,63,0.015020576592044472,0.017028899500399985,14.904615083152814,18.279510572641684,0.96875,6.657446113934763,0.4221474166923746,0.005977584059775841,0.00049800796812749,0.002008322908355514,0.002008322908355514
112,494577.7777777778,64,64,0.02026094800065502,0.022915264961421763,16.223959007543737,20.95239966524292,0.984375,7.442821131682205,0.42159863764039157,0.005149583128984796,0.0004903162539838195,0.0026543169607667443,0.0026543169607667443
112,540755.5555555556,64,64,0.01705076089450522,0.018920802109260962,17.217596789014237,20.46844523365999,0.984375,6.606216292913257,0.432414694396989,0.004597701149425287,0.0005107252298263534,0.0018700412147557403,0.0018700412147557403
112,585097.2222222221,64,63,0.01935030027668979,0.020702660925482508,16.94804298119893,19.150445963690935,0.96875,6.362817653774701,0.42768364330660535,0.005605095541401274,0.0005094243504839531,0.0013523606487927178,0.0013523606487927178
112,629561.1111111111,64,63,0.01849963002082028,0.019586778579685382,19.441243976262562,20.536565382228066,1.0,5.389150883285975,0.4228783356670078,0.005069708491761723,0.0005068423720223011,0.001087148558865103,0.001087148558865103
112,674244.4444444444,64,63,0.06256434704718927,0.06421510615024628,52.764806932843065,54.726957784051216,1.0,4.811156142838072,0.4260817266110794,0.01015354135710748,0.0004951720722951226,0.001650759103057009,0.001650759103057009
112,719955.5555555555,64,62,0.01945383495299155,0.02103404754858716,18.429070113512065,20.353866871244545,0.9841269841269841,4.991001615029374,0.424557087816646,0.005125576627370579,0.0005124263387138099,0.0015802125955956085,0.0015802125955956085
112,764158.3333333333,64,62,0.04263176083830937,0.04521097902382741,49.07294694495513,52.58629393568514,0.9841269841269841,5.7572937960077075,0.4420352495189891,0.0030729833546734955,0.0005120327700972862,0.0025792181855180396,0.0025792181855180396
112,808375.0,64,63,0.015932979045201395,0.017048536361009628,14.40354700993374,16.085867975951516,0.96875,5.359067217374451,0.4285522916308722,0.004483122362869198,0.0005272871078302136,0.0011155573158082334,0.0011155573158082334
112,851350.0,64,63,0.02300175348354315,0.02363718247545408,15.788545722291591,17.540061553125195,0.96875,4.70605039862036,0.43814906957156735,0.009207161125319692,0.0005113781641523907,0.0006354289919109288,0.0006354289919109288
112,895672.2222222222,64,63,0.014401936713970461,0.01556418109942775,15.78460400569893,16.828679505956448,1.0,5.677297384796144,0.4199624176119181,0.004491017964071856,0.0004988775255674732,0.0011622443854572891,0.0011622443854572891
112,941052.7777777778,64,64,0.01886520263733644,0.020549321127704995,15.218604860228188,17.740323637069707,0.96875,4.293950677671055,0.4310263163656956,0.005267118133935289,0.0005015045135406219,0.0016841184903685531,0.0016841184903685531
112,986250.0,64,63,0.023323519209014314,0.024424003932341867,18.97802078193688,20.53656538222081,1.0,3.8465332152190923,0.4390922441721327,0.006231306081754736,0.00049838026414154,0.001100484723327553,0.001100484723327553
112,1031694.4444444444,64,63,0.019901895895712517,0.02302640517801687,14.808279621951366,20.034372876482436,1.0,5.786703948170318,0.44261672692941806,0.004477611940298508,0.0004973887092762995,0.003124509282304351,0.003124509282304351
112,1077222.2222222222,64,64,0.021686013497504444,0.02153033617201746,20.533990431506112,20.517354372022385,1.0,5.618874557107001,0.42736367364151523,0.0037304153195722458,0.0004972650422675286,-0.00015567732548698449,0.00015567732548698449
112,1122794.4444444445,64,63,0.014391350170769488,0.016466450741836343,13.644808700055119,17.423515002923182,1.0,6.000047685514591,0.42522296405191273,0.0046466128637808754,0.0004889975550122249,0.002075100571066855,0.002075100571066855
112,1169105.5555555555,64,63,0.014257848422213398,0.015680237693242692,13.969301268711655,16.828679505938744,1.0,5.9415549844578175,0.4287665889120931,0.005594745803940647,0.00048638132295719845,0.001422389271029294,0.001422389271029294
112,1215677.7777777778,64,62,0.016841044103307626,0.01669118383982703,17.368725928563066,17.50905832691786,0.9841269841269841,6.076261162080515,0.4326521005750917,0.0041412911084043845,0.0004870920603994155,-0.00014986026348059664,0.00014986026348059664
112,1262169.4444444445,64,64,0.01409020430120584,0.015222753953622624,14.833470929527268,16.389439874980756,0.984375,6.023655866112835,0.43537790505687934,0.0046545810877021065,0.0004898359049718344,0.0011325496524167838,0.0011325496524167838
112,1308427.7777777778,64,64,0.01931446785449893,0.020147294795951846,17.37947057908945,18.568462104444265,0.984375,6.215574125000656,0.4389119034243108,0.0065154440154440154,0.0004825090470446321,0.0008328269414529174,0.0008328269414529174
112,1355350.0,64,63,0.017307589401452467,0.01790668082219856,16.852311362156605,17.77086176146995,1.0,6.358276469477111,0.43680976606751715,0.005363237445148708,0.0004874482086278333,0.0005990914207460937,0.0005990914207460937
112,1401825.0,64,63,0.014446163776084337,0.015294220278769482,13.947011001994541,15.439583135405792,1.0,6.657765067308019,0.4403211103545034,0.00338409475465313,0.0004833252779120348,0.0008480565026851451,0.0008480565026851451
112,1448647.222222222,64,64,0.017841643255811744,0.020360773249073868,18.170642314874073,22.475635619822942,0.984375,6.817650443451092,0.4550310646888302,0.004814636494944632,0.0004813477737665463,0.0025191299932621238,0.0025191299932621238
112,1495705.5555555555,64,63,0.018021296730098037,0.018672042105485755,17.27172328776885,17.942013657534506,1.0,6.3978932474534815,0.4473842375955313,0.005266937993775437,0.0004786979415988511,0.0006507453753877186,0.0006507453753877186
112,1543025.0,64,62,0.014668257022668283,0.016522084238149392,13.866469360333255,16.155380987900212,0.9841269841269841,6.6490830713913835,0.4490435191452389,0.004636408003904344,0.00048792388387411563,0.0018538272154811093,0.0018538272154811093
112,1589444.4444444443,64,63,0.016421798950154005,0.01678866595584338,18.11576671255363,18.44594354101537,0.96875,6.278894836125823,0.4457191221924324,0.0031925343811394892,0.0004910385465259023,0.00036686700568937594,0.00036686700568937594
112,1635572.2222222222,64,63,0.01623906433449149,0.018044673337484517,17.170549142789508,19.36205952539312,1.0,6.35938566321132,0.4517544761153107,0.004878048780487805,0.000487685930260912,0.0018056090029930257,0.0018056090029930257
112,1682013.888888889,64,63,0.016898542237867818,0.01905299223794346,13.94701100194817,17.36494840022745,1.0,6.539009198806219,0.44797880880392643,0.00416258570029383,0.0004895960832313342,0.002154450000075643,0.002154450000075643
112,1728288.8888888888,64,64,0.017620396058479117,0.017815949854532605,19.370699892742266,19.821647469404763,0.984375,6.762904648725779,0.4532884993114298,0.0058309037900874635,0.00048579062424095217,0.0001955537960534881,0.0001955537960534881
113,472.22222222222223,64,98,0.08728400179890511,0.43118810240422145,122.30670752210801,405.8558629830687,0.6326530612244898,9.732921721289657,0.2935596548231049,0.020366250213931198,0.00034223134839151266,0.34390410060531634,0.34390410060531634
113,66761.11111111111,64,92,0.05649562138420979,0.41953399420125204,78.1727999927202,417.27247310863845,0.6847826086956522,6.589429721674817,0.2875072441405087,0.025518068162356567,0.00034246575342465754,0.36303837281704227,0.36303837281704227
113,132891.6666666667,64,94,0.09033650455935852,0.4277910379964691,101.53761125515618,396.1628269852994,0.6595744680851063,7.19659858321344,0.28987540080790447,0.023231801755291687,0.00034411562284927734,0.3374545334371106,0.3374545334371106
113,198950.0,64,94,0.07342676988698495,0.4289835414634767,85.79619256529907,424.15061821162476,0.6702127659574468,7.680243810693731,0.2851841717960026,0.021534320323014805,0.000336417157275021,0.3555567715764918,0.3555567715764918
113,266219.44444444444,64,99,0.06590609047810184,0.42828272779475196,84.68953185637557,416.055216568272,0.6363636363636364,6.044097353280216,0.2804022547140425,0.02223742730071844,0.0003420557550880794,0.36237663731665015,0.36237663731665015
113,332408.3333333334,64,97,0.09040165677055591,0.42571698178333317,118.64888849686095,423.00233571421904,0.6428571428571429,8.004220883230639,0.287216622378427,0.023605884365378037,0.0003420557550880794,0.3353153250127773,0.3353153250127773
113,398480.55555555556,64,95,0.08922611984755927,0.43264314606724974,132.55541434947173,436.25242159030006,0.6631578947368421,8.260535445783878,0.2834569061518312,0.021254888624383607,0.00034002040122407346,0.3434170262196905,0.3434170262196905
113,465119.4444444445,64,98,0.08630532617465704,0.4231386006289009,120.16795544127122,408.7768360290351,0.6262626262626263,11.029802492984876,0.28672234840511307,0.01939203354297694,0.00034934497816593884,0.3368332744542439,0.3368332744542439
113,530011.111111111,64,96,0.06875731752517594,0.40852961902771345,92.51669529767732,402.58936285462846,0.65625,11.361048694988664,0.28298861573658946,0.019300361881785282,0.00034458993797381116,0.3397723015025375,0.3397723015025375
113,595797.2222222222,64,93,0.062071043731184244,0.42333832651339426,82.62316874064527,394.29817480074934,0.6595744680851063,11.233450758707965,0.28353993379591774,0.02239972217398854,0.00034722222222222224,0.36126728278221,0.36126728278221
113,661186.1111111111,64,88,0.1217157057955632,0.38730419846827085,124.85555174391027,373.6769785731963,0.7159090909090909,11.094252951993195,0.28632524303287304,0.018498563218390805,0.0003591309032142216,0.2655884926727077,0.2655884926727077
113,724366.6666666666,64,80,0.12231045132589564,0.35988343270598905,89.349027446824,355.9734072710674,0.7875,12.011644255687798,0.2968439215073345,0.01799576570218772,0.0003527959075674722,0.23757298138009342,0.23757298138009342
113,788686.1111111111,64,103,0.08491901332614601,0.4333400921542672,99.90163421744295,420.0141247204903,0.5961538461538461,10.609080913883995,0.28845969832239726,0.022707724066746947,0.0003439972480220158,0.34842107882812123,0.34842107882812123
113,854558.3333333333,64,101,0.0788273454956113,0.41885512555379,86.45439724887011,405.7367089350916,0.6237623762376238,9.748359183222181,0.2853101167171587,0.02457730521178316,0.0003485535029627048,0.3400277800581787,0.3400277800581787
113,919558.3333333333,64,87,0.09103910331053994,0.40529642536440325,105.88928097201952,362.78616129208126,0.7126436781609196,11.280326583741424,0.28375051143218416,0.023251654444643177,0.000357653791130186,0.3142573220538633,0.3142573220538633
113,982811.1111111111,64,80,0.1347274838520688,0.36635453427826087,112.06134890299296,396.9345263623658,0.7654320987654321,10.663879006171198,0.2877855291943917,0.018782608695652174,0.0003477656059815684,0.23162705042619205,0.23162705042619205
113,1048061.1111111111,64,93,0.06793508942806525,0.4144603689966176,89.42629883400483,398.2238656201911,0.6595744680851063,11.189794056341045,0.2818873602084843,0.020182853199931,0.00034494653328734045,0.34652527956855234,0.34652527956855234
113,1113727.777777778,64,86,0.10315343419005235,0.39508824073023807,83.59650797110422,329.5032684279264,0.7325581395348837,11.77487873791797,0.29227352432882375,0.0190032269630692,0.000358487184083169,0.2919348065401857,0.2919348065401857
113,1176966.6666666667,64,81,0.09506237374236703,0.35038795217393615,79.95932483473379,377.4982685596669,0.7777777777777778,11.962067705345076,0.2868791872575898,0.021844660194174758,0.0003466805338880222,0.2553255784315691,0.2553255784315691
113,1242252.7777777778,64,72,0.1253958062190694,0.3108280635080193,133.54411356115185,309.2457973238118,0.8493150684931506,11.754477201550387,0.28156360260065455,0.022270114942528736,0.0003591309032142216,0.18543225728894988,0.18543225728894988
113,1305305.5555555557,64,72,0.11371528071003292,0.29431344106348367,137.93309115076516,312.3648396963689,0.875,11.972952054764932,0.2954596901889456,0.017857142857142856,0.00036436509382401167,0.18059816035345075,0.18059816035345075
113,1367491.6666666665,64,76,0.06389970158402229,0.32697122965477254,86.28508844208017,313.8552572415278,0.8051948051948052,11.936344392632014,0.28738328822631576,0.023594110342380698,0.000354735721887194,0.26307152807075024,0.26307152807075024
113,1431308.3333333335,64,71,0.12130130867895313,0.28019975840689704,103.561864299362,257.017178654063,0.8611111111111112,12.323629262468978,0.29769316706206245,0.01753731343283582,0.00037306472673008767,0.15889844972794392,0.15889844972794392
113,1492080.5555555555,64,70,0.09524017525332132,0.23753551725084726,95.31670782668432,248.64057601738264,0.9,12.234619767314937,0.2932749706428757,0.0168600435097897,0.00036251586006887804,0.14229534199752594,0.14229534199752594
113,1554477.777777778,64,71,0.09917340041613883,0.2650135454939036,98.03932110478259,247.22235592461567,0.8873239436619719,11.206303051836029,0.2962517747203365,0.015431510763955039,0.00038095238095238096,0.1658401450777648,0.1658401450777648
113,1614000.0,64,79,0.08176419513005567,0.33480908918385077,83.32138504544714,346.5082949993951,0.7974683544303798,10.724235116070362,0.29088126044040197,0.020024377503047187,0.00034818941504178273,0.2530448940537951,0.2530448940537951
113,1678938.8888888888,64,73,0.10981732317481319,0.2775926801567449,83.74153309314983,247.07171936959332,0.863013698630137,11.52904728874105,0.28642638230862294,0.01947813303932378,0.00036744442403086535,0.1677753569819317,0.1677753569819317
113,1740675.0,64,81,0.1268191091010463,0.3717337059008532,134.61525332487196,374.46045836634744,0.7777777777777778,10.821052547412982,0.2817458144368854,0.021715721464465182,0.00035887313834559486,0.2449145967998069,0.2449145967998069
114,861.1111111111112,64,64,0.03889449969805741,0.039054618742503204,47.52040581201347,48.73835729386552,0.984375,28.557857220315647,0.4699420252908571,0.021560740144810943,0.00032175032175032174,0.0001601190444457945,0.0001601190444457945
114,71241.66666666666,64,64,0.13349913316060988,0.16869660289346,239.11566089061037,273.24823266953933,0.984375,24.86094875475753,0.4457531057238542,0.019836065573770493,0.00032781511227667593,0.03519746973285012,0.03519746973285012
114,140400.0,64,64,0.08494602141034284,0.09135567512678466,153.46173069443444,166.2683517037796,0.984375,26.872285140638752,0.45719224134961134,0.02230180693472245,0.0003255208333333333,0.006409653716441824,0.006409653716441824
114,209969.44444444444,64,64,0.17777608671695913,0.19451303378326656,310.99368143497895,320.7632851452669,0.984375,21.7658671554265,0.421572518964349,0.018800065391531798,0.00032690421706440013,0.016736947066307434,0.016736947066307434
114,279236.11111111107,64,62,0.18081756577757724,0.1678267898323512,328.79148877426445,306.9110482327707,0.953125,21.085598913463347,0.4182284635571571,0.016126350789692434,0.0003324468085106383,-0.012990775945226046,0.012990775945226046
114,347319.44444444444,64,63,0.1440960848230781,0.15778918477871187,257.3107192724184,283.0554251556977,1.0,21.482492488201014,0.43174300316220404,0.02435791217895609,0.0003313452617627568,0.01369309995563378,0.01369309995563378
114,415369.4444444445,64,62,0.14041408131819796,0.1511611123707247,249.244927033492,275.59015484218105,0.9841269841269841,21.952439928302056,0.4313265604102889,0.020286588311061022,0.0003219575016097875,0.010747031052526723,0.010747031052526723
114,485683.3333333333,64,64,0.17888302822554228,0.19282157166193986,337.9901709151079,365.73162199710373,0.984375,20.938680221140316,0.4196196973214664,0.02044153720359771,0.0003270111183780249,0.013938543436397582,0.013938543436397582
114,555005.5555555556,64,63,0.14355206116649616,0.15352154127181084,222.3996827266945,241.84047084488597,1.0,21.050182129889684,0.4524526013085875,0.00975177304964539,0.0003545470661230278,0.009969480105314676,0.009969480105314676
114,618772.2222222222,64,64,0.05111523827313186,0.051152795022408645,52.48693679812628,52.72904949812905,0.984375,21.796074927900843,0.46272529057397427,0.016728624535315983,0.00037167812674224123,3.755674927678754e-05,3.755674927678754e-05
114,679777.7777777779,64,62,0.1629655041235937,0.170198770231284,154.2580616429557,167.40978169098253,0.9841269841269841,20.76136462918603,0.4339021105852699,0.018472022955523672,0.00035861574323112785,0.007233266107690289,0.007233266107690289
114,743008.3333333334,64,63,0.102177679945657,0.11091705721847613,160.31466407454926,176.70834119144538,1.0,21.13669687935488,0.4468353359795334,0.01368888888888889,0.00035549235691432633,0.008739377272819121,0.008739377272819121
114,806736.1111111111,64,63,0.10065209754066522,0.11211529463299987,166.37930723186133,187.08067950124956,1.0,20.18321708132288,0.43998637314324573,0.016234339156520203,0.00035285815102328866,0.011463197092334648,0.011463197092334648
114,870869.4444444444,64,63,0.04062027113065401,0.03948596423968738,48.5963879393408,45.943334996567074,1.0,22.025519510827056,0.460623391712694,0.011227816008692503,0.0003621220351258374,-0.0011343068909666285,0.0011343068909666285
114,933419.4444444445,64,63,0.1159068794993375,0.12134756966460436,192.05553767070717,202.3624200761708,1.0,19.405189814466738,0.4495636159256489,0.014404432132963989,0.00036927621861152144,0.005440690165266854,0.005440690165266854
114,994736.1111111111,64,63,0.04076684713217012,0.04153774023067429,46.36986389002375,48.109606546481174,1.0,22.095645592034998,0.46710855392124767,0.015208411565903118,0.00037544584193730055,0.0007708930985041718,0.0007708930985041718
114,1055038.8888888888,64,63,0.04111582522113396,0.04098106769745679,51.11997351868969,51.996977661406476,1.0,22.150735813321443,0.47252960826896967,0.014414077124672407,0.0003743215422047539,-0.0001347575236771703,0.0001347575236771703
114,1115497.2222222222,64,62,0.03742447420916746,0.03829464767051512,43.750177788801025,44.66271042146358,0.9841269841269841,21.3197588441518,0.47171936168924017,0.01405775075987842,0.0003798670465337132,0.0008701734613476564,0.0008701734613476564
114,1175138.888888889,64,65,0.035743478180872854,0.09571697031021183,36.617622244768015,93.34713256844742,0.9692307692307692,15.446631138517036,0.46398403404292726,0.014769929937511835,0.0003786444528587656,0.05997349212933897,0.05997349212933897
114,1234969.4444444445,64,63,0.046831714956672994,0.04856454096814346,47.02679358643216,50.344592464540305,1.0,18.276461562919117,0.4408593222312532,0.013207924754852912,0.00040016006402561027,0.0017328260114704633,0.0017328260114704633
114,1291605.5555555555,64,62,0.04209809965833677,0.04259702045840481,43.493408958855575,42.98474542076738,0.9841269841269841,15.805483147377128,0.4381516280130182,0.012612612612612612,0.00040032025620496394,0.0004989208000680465,0.0004989208000680465
114,1348161.111111111,64,62,0.036741219983674585,0.03743335582142916,42.31720358007359,43.27291453883714,0.9841269841269841,14.403428850975391,0.43777008958573216,0.013224821973550356,0.0004068348250610252,0.0006921358377545775,0.0006921358377545775
114,1403819.4444444443,64,63,0.04867064983992772,0.04980976936464641,52.655016632665316,54.61515591495692,1.0,13.31200323763387,0.4397938303712512,0.017106057556852485,0.00040241448692152917,0.001139119524718686,0.001139119524718686
114,1460133.3333333335,64,63,0.04260124617563398,0.04386176158732773,45.86251379123149,47.44864103967016,1.0,14.176950322578634,0.4547926447928472,0.012148974307906792,0.00039824771007566706,0.0012605154116937453,0.0012605154116937453
114,1517011.1111111112,64,63,0.04194327722337053,0.0422362070864395,40.58328702783413,42.24688500106301,1.0,12.844962495577308,0.44511272351943637,0.013894649523019494,0.00041467965996267884,0.0002929298630689678,0.0002929298630689678
114,1571580.5555555555,64,63,0.07163593776396454,0.07196417288693478,90.4255063702143,91.00660522948115,1.0,17.293308487156022,0.453400376529047,0.015611814345991562,0.0004218519299725796,0.00032823512297024127,0.00032823512297024127
114,1625238.8888888888,64,63,0.0454626929664393,0.045759223972376674,39.575668942992124,39.68554843387779,1.0,17.726100299572064,0.44267591751996416,0.01422680412371134,0.00041228612657184083,0.0002965310059373713,0.0002965310059373713
114,1680155.5555555555,64,64,0.04837028934362678,0.04881470448880714,49.97012249509377,50.25704908338474,0.984375,17.414468787509776,0.44560669512368156,0.01278877887788779,0.00041245617653124357,0.00044441514518036435,0.00044441514518036435
114,1735005.5555555555,64,64,0.06345235025646621,0.0628670454702609,68.48622055140173,67.27809425940445,0.96875,6.154332533614282,0.42816096295439876,0.01683358193053484,0.00042607584149978694,-0.0005853047862053179,0.0005853047862053179
115,447.22222222222223,64,62,0.07047723917778376,0.07218432434356327,70.08574852675281,71.13669191858213,1.0,17.781435625713915,0.410981526679252,0.007224898110411263,0.0003704389701796629,0.0017070851657795122,0.0017070851657795122
115,61580.555555555555,64,63,0.06065718088543306,0.061382595614598114,73.88154489603131,74.27915754793,1.0,11.53242515362095,0.4181868395748912,0.010391538318797551,0.00037105751391465676,0.0007254147291650553,0.0007254147291650553
115,122652.77777777777,64,63,0.0686100398617981,0.06869420898603328,81.63136534960621,83.40160297534526,1.0,18.955839023673573,0.4113932002171526,0.00900562851782364,0.00037516413430876007,8.416912423517275e-05,8.416912423517275e-05
115,182952.77777777778,64,64,0.08139665597280128,0.11466005450390383,60.48164737715643,106.65829701573851,0.984375,24.371593407955714,0.4101164404395768,0.008793264733395697,0.0003741114852225963,0.03326339853110255,0.03326339853110255
115,243483.3333333333,64,63,0.07180698345925735,0.07189867365694269,71.46086841658918,70.47896051389812,1.0,19.367259829964393,0.4007082011782435,0.01095025983667409,0.00037112636852848393,9.16901976853457e-05,9.16901976853457e-05
115,304594.44444444444,64,62,0.06363615534367094,0.06348731571444716,78.81177133320456,77.46511668118887,0.9841269841269841,24.963102479644675,0.4029218026517546,0.00823199251637044,0.0003741114852225963,-0.00014883962922378202,0.00014883962922378202
115,365038.8888888889,64,63,0.07354582469066279,0.07345639025959491,84.64469982863696,84.37311626351665,1.0,23.264719890629777,0.40074700428588145,0.010078387458006719,0.0003732039559619332,-8.943443106787519e-05,8.943443106787519e-05
115,425625.0,64,63,0.09441958146822937,0.09481631998299234,81.35954001280503,80.88403198169938,1.0,26.78536565617487,0.4036121629295768,0.006429652042360061,0.0003781433163168841,0.00039673851476296207,0.00039673851476296207
115,485525.0,64,63,0.060771262001460394,0.06145749754851699,67.67274016211073,68.94456072162048,1.0,21.822145409463932,0.41353191007515877,0.008420658682634731,0.00037418147801683815,0.0006862355470565948,0.0006862355470565948
115,545986.1111111111,64,64,0.060005958703365565,0.06052865979319519,69.63504309900125,70.834060328927,0.984375,14.330126727932043,0.4018889669543327,0.011160284779680585,0.00038476337052712584,0.0005227010898296233,0.0005227010898296233
115,604761.111111111,64,62,0.06860343454712016,0.06984243062147945,77.16492420575412,78.19700297327846,0.9841269841269841,16.50433714416182,0.39694749478103947,0.0101364522417154,0.0003897875657766517,0.0012389960743592887,0.0012389960743592887
115,662866.6666666666,64,62,0.07237049026557361,0.07302547186546506,75.74549838562052,77.26430812595417,0.9841269841269841,18.519914395002765,0.39540472176354097,0.007550822846079381,0.00038714672861014324,0.000654981599891441,0.000654981599891441
115,721330.5555555555,64,63,0.07839429560354477,0.07841371624047042,75.2286439130462,76.44203022127066,1.0,21.172341892688515,0.39899959975976196,0.011692543607437225,0.0003832886163280951,1.942063692564333e-05,1.942063692564333e-05
115,780308.3333333333,64,63,0.06651108838653982,0.06712711826071192,68.49076337337141,69.12164464530728,1.0,19.892347974061806,0.39968083275108335,0.010422698320787493,0.00038595137012736397,0.0006160298741720999,0.0006160298741720999
115,839036.1111111111,64,63,0.08477427631873198,0.08587337324979498,84.64249436216383,86.3777345341589,1.0,23.944649815714524,0.40646699083257626,0.009590071455434375,0.00037601052829479227,0.0010990969310629983,0.0010990969310629983
115,899344.4444444444,64,63,0.08419170035935605,0.0837699226860355,90.30293280641506,87.57243926558813,1.0,20.484568934110303,0.4051989692824773,0.009914204003813156,0.0003812428516965307,-0.00042177767332055027,0.00042177767332055027
115,958766.6666666666,64,63,0.07599464654945062,0.0759453675017179,70.42939500949264,71.15506766560227,1.0,22.596434661929468,0.4067221799020709,0.012285491419656786,0.0003899395593682979,-4.927904773271985e-05,4.927904773271985e-05
115,1016897.2222222222,64,64,0.06020946313822422,0.06055698163916472,52.330209405364506,53.50271438828955,0.984375,23.07216779089278,0.40134579166547546,0.009319849296053936,0.0003965107057890563,0.00034751850094049547,0.00034751850094049547
115,1074105.5555555555,64,62,0.09203440936148716,0.0930631886047105,83.95823049789517,84.13068425746103,0.9841269841269841,21.940346139460093,0.39823906304198764,0.007976256724169913,0.000370919881305638,0.0010287792432233378,0.0010287792432233378
115,1135088.888888889,64,63,0.068575475393889,0.06718406476192663,58.63974822319825,58.973839025691596,1.0,27.536636452147608,0.39135663436747137,0.009565563969709047,0.0003984857541342897,-0.001391410631962367,0.001391410631962367
115,1191961.1111111112,64,64,0.083578200594237,0.08402916277632462,74.50219768017229,75.09250260579354,0.984375,17.583987942526253,0.3983617938621197,0.011570896254167485,0.000392156862745098,0.00045096218208762195,0.00045096218208762195
115,1249913.8888888888,64,63,0.10156087843798448,0.10115672916098219,48.235233944820486,47.81223747589316,1.0,5.565488151470964,0.39636098812334625,0.01471825063078217,0.00042043304603741857,-0.00040414927700228864,0.00040414927700228864
115,1303691.6666666665,64,62,0.09901885781743469,0.09814223396974796,61.85398911737212,63.68516458200003,1.0,12.442503366380654,0.39621446112698655,0.01083957430035475,0.00039408866995073894,-0.0008766238476867333,0.0008766238476867333
115,1361102.777777778,64,63,0.09625510619410967,0.09218855521509522,71.72335981037641,72.4180640633573,1.0,20.89790807847634,0.3969529131571642,0.008293838862559242,0.0003948667324777887,-0.004066550979014441,0.004066550979014441
115,1418602.777777778,64,64,0.11136489088098421,0.11166601104729015,79.29350651370262,80.30401189314712,0.984375,22.185835513095785,0.40569897741239436,0.009558401835213153,0.00038226299694189603,0.0003011201663059432,0.0003011201663059432
115,1477894.4444444445,64,62,0.0998474639092838,0.10213993512961544,75.17982557069045,77.04953548503977,0.9841269841269841,21.725164874292624,0.41282893214472766,0.008083140877598153,0.00038483740619588223,0.002292471220331646,0.002292471220331646
115,1536788.8888888888,64,63,0.11368397580150637,0.11412796352995326,78.40409625664832,79.08822473335506,1.0,28.753366655752433,0.40967623071866965,0.008306588635076459,0.00037750094375235937,0.00044398772844689294,0.00044398772844689294
115,1596747.2222222222,64,62,0.15716074466460928,0.15788057935173905,86.12989736109728,87.40321100237941,0.9841269841269841,15.557956069457115,0.40838007694197975,0.010991129965291169,0.000385579332947754,0.0007198346871297723,0.0007198346871297723
115,1655400.0,64,65,0.12215993956172991,0.16429846891229016,101.13540513215634,171.94127639054943,0.9692307692307692,30.073024019896724,0.398936535267494,0.006123163051084675,0.00034983382893125764,0.042138529350560255,0.042138529350560255
115,1719977.777777778,64,62,0.12311168115723216,0.12336848194694733,65.83543166202789,66.06389869521914,0.9841269841269841,25.55074886960196,0.39508238377980404,0.007269155206286837,0.0003928501276762915,0.00025680078971516973,0.00025680078971516973
116,783.3333333333334,64,63,0.01641611215229499,0.016328637568568758,15.7055619265314,16.768035418593072,0.9841269841269841,17.821141032557808,0.5243792962927387,0.008853681267474371,0.0004658746797111577,-8.747458372623113e-05,8.747458372623113e-05
116,49413.88888888889,64,63,0.04995871944601224,0.01779835666460202,42.06204288917582,19.98345952129791,1.0,18.067304395745044,0.5308848078559415,0.011342592592592593,0.0004628558204119417,-0.03216036278141022,0.03216036278141022
116,98655.55555555555,64,63,0.06714956161459303,0.06843224583857888,89.08468579129277,90.97301725811245,1.0,18.866927410600276,0.5221960220052849,0.011075219197046609,0.000461361014994233,0.00128268422398585,0.00128268422398585
116,147769.44444444444,64,64,0.08641187362434814,0.08860774303154792,112.4958515098691,115.59641536782667,0.984375,17.306908451932763,0.4873347756496992,0.008928571428571428,0.0004698144233027954,0.002195869407199777,0.002195869407199777
116,195994.44444444444,64,63,0.06780843343547176,0.07057453992215579,86.01494804009282,89.74412893647455,1.0,17.761006340440666,0.5125551283719298,0.00924828076831871,0.000474158368895211,0.0027661064866840307,0.0027661064866840307
116,243758.3333333333,64,63,0.11963953897722297,0.12026674047329225,163.10028359557109,163.75839859645612,0.96875,16.794877708532308,0.48618520053240416,0.008393564933550944,0.0004662004662004662,0.0006272014960692768,0.0006272014960692768
116,292327.7777777778,64,64,0.06925151513400364,0.0691947033670272,79.80352840669711,79.41290282976034,0.984375,18.32511676005277,0.5314176553156483,0.007492390540856942,0.00046816479400749064,-5.681176697644452e-05,5.681176697644452e-05
116,340680.55555555556,64,62,0.09699778937123203,0.09750130958589055,125.38173491549341,125.5274307378655,0.9841269841269841,17.45815770173027,0.48697996675370686,0.009922041105598866,0.0004723665564478035,0.0005035202146585205,0.0005035202146585205
116,388644.44444444444,64,63,0.1365347406690549,0.13138659508713244,174.24418624350616,164.24291033649263,1.0,16.106455992537782,0.47020961212179085,0.008530805687203791,0.00047382136934375743,-0.005148145581922475,0.005148145581922475
116,436444.44444444444,64,62,0.10405013474377368,0.09788766139216835,127.95589113309131,117.7185734779322,0.9841269841269841,16.223457583933943,0.4734370899263637,0.007729468599033816,0.0004829751267809708,-0.00616247335160533,0.00616247335160533
116,483344.44444444444,64,63,0.13960749937246114,0.13548725283922475,175.83928571463707,166.570966002747,1.0,15.680373064386199,0.46863431351728513,0.009043312708234174,0.0004758505829169641,-0.0041202465332363936,0.0041202465332363936
116,530941.6666666667,64,63,0.12573780273422153,0.13084233926073022,160.47062468224493,167.16314964782273,1.0,16.344508103464662,0.45832029612710834,0.009962049335863378,0.00047427080863172874,0.005104536526508691,0.005104536526508691
116,578750.0,64,64,0.20417217248081543,0.20533687065414152,256.076831221892,257.4051039302044,1.0,12.257765543692324,0.396798038443688,0.010755202244563947,0.0004675081813931744,0.0011646981733260953,0.0011646981733260953
116,627247.2222222222,64,63,0.13717373262879431,0.13760055463462906,178.80910251264626,178.6120618229481,0.96875,17.793999191608627,0.4673945288927075,0.008529276164130935,0.0004609356994699239,0.0004268220058347427,0.0004268220058347427
116,676380.5555555556,64,64,0.12698439945748796,0.12753537020298913,166.89575056644532,167.91194042711714,0.984375,16.88863527104731,0.49065611437438766,0.011313784345416763,0.0004616805170821791,0.0005509707455011725,0.0005509707455011725
116,725433.3333333333,64,63,0.11730057722546221,0.11821269975447309,154.22538356794723,155.14619280070653,1.0,17.776972735923586,0.4965455258254824,0.010146561443066516,0.0004508566275924256,0.0009121225290108781,0.0009121225290108781
116,775669.4444444445,64,63,0.09575356983822239,0.09703626369775573,127.32065263034494,129.0663655955639,1.0,19.252016012243498,0.50409673252198,0.010519094443174023,0.0004572473708276177,0.0012826938595333348,0.0012826938595333348
116,825227.7777777778,64,63,0.10118899944495195,0.10291993574852079,134.24401511939195,137.02943671750077,1.0,19.43148735809348,0.5032970900116105,0.00983756577442233,0.0004574565416285453,0.001730936303568839,0.001730936303568839
116,874705.5555555555,64,62,0.01501430111136621,0.016552366510482548,16.3918501668023,18.599024535448418,0.9841269841269841,20.951202769711827,0.5443930153007602,0.008484292593441871,0.0004585052728106373,0.0015380653991163371,0.0015380653991163371
116,924125.0,64,62,0.08668177243278428,0.08981055433713751,112.43277561396833,116.45364921547997,0.9841269841269841,19.730252326831643,0.5111628207320209,0.008342989571263035,0.0004633920296570899,0.0031287819043532283,0.0031287819043532283
116,973022.2222222222,64,61,0.08832043178966006,0.1997989379665915,114.04504549269035,246.10652785741834,0.9523809523809523,9.191900300587289,0.3959959328107934,0.03206034889203206,0.0004713646005185011,0.11147850617693145,0.11147850617693145
116,1021080.5555555555,64,63,0.10643182628804598,0.10650964786194456,137.03057881387306,137.1409062199432,1.0,12.085993464888633,0.4757746816789058,0.008724357462862532,0.0004714757190004715,7.782157389857325e-05,7.782157389857325e-05
116,1069152.7777777778,64,62,0.1226486893712219,0.11848826183111077,153.8812382452183,145.07039238904417,0.9841269841269841,16.820638261696036,0.4804426263403005,0.008968609865470852,0.00047192071731949034,-0.004160427540111131,0.004160427540111131
116,1117155.5555555555,64,63,0.12485451031308109,0.12719659061159277,161.48724786376374,164.55893516807325,1.0,18.743263832700706,0.4519156879327339,0.008695652173913044,0.00046992481203007516,0.002342080298511684,0.002342080298511684
116,1165369.4444444445,64,63,0.12668028142952134,0.12750965813989285,160.94997194399065,161.74287233143292,1.0,19.2787269521125,0.4866994862457145,0.009202453987730062,0.00047180938900684123,0.0008293767103715044,0.0008293767103715044
116,1213394.4444444445,64,64,0.06116487410012023,0.06103608527148919,70.63759940723641,70.79159810491466,0.984375,20.88472345570788,0.5303311776885588,0.007183908045977011,0.00047881254488867607,-0.00012878882863104346,0.00012878882863104346
116,1260688.8888888888,64,63,0.1341443637712006,0.1345073176608304,166.58861673059468,167.05951659282735,1.0,17.769880058061663,0.45986142761727367,0.010144927536231883,0.0004829751267809708,0.00036295388962981345,0.00036295388962981345
116,1307600.0,64,63,0.11984368028368789,0.11929563266454561,153.7036137381066,152.69737246649925,1.0,15.232272483451744,0.4622923491581663,0.00714455822814956,0.0004761904761904762,-0.0005480476191422751,0.0005480476191422751
116,1355152.7777777778,64,51,0.09779910421272825,0.10083648693290724,124.75683237485131,128.42409087904608,0.8627450980392157,4.279432704979592,0.38087459910567434,0.038010996892182645,0.0004780114722753346,0.003037382720178991,0.003037382720178991
116,1402550.0,64,62,0.09357819589964253,0.13638301403428016,117.81257939205338,146.43472077559127,1.0,7.272690617358483,0.4244013100025875,0.03312678741658723,0.0004765308553728854,0.04280481813463763,0.04280481813463763
116,1450055.5555555557,64,63,0.07891588097095217,0.0805889285220321,93.04184620569788,95.64577927982995,1.0,22.849525950590696,0.49523589355973613,0.008308895405669599,0.0004886391399951136,0.0016730475510799286,0.0016730475510799286
116,1496405.5555555555,64,63,0.10364025316555843,0.10490092505184699,131.39268713205544,133.2298603970875,1.0,19.33528633639832,0.4349514531625527,0.008626887131560028,0.0004791566842357451,0.0012606718862885613,0.0012606718862885613
116,1543669.4444444445,64,62,0.11235570206339467,0.11311568887823394,129.82426930295384,130.47130317358375,0.9841269841269841,18.469340269560256,0.39139028829264055,0.006810994891753831,0.00048638132295719845,0.0007599868148392697,0.0007599868148392697
116,1590261.1111111112,64,63,0.08913953640615452,0.08872633306351715,111.4723071835604,111.37301106192082,1.0,12.528266557071813,0.42732058125008243,0.006097560975609756,0.000487685930260912,-0.0004132033426373638,0.0004132033426373638
116,1636700.0,64,64,0.017263157457575746,0.01791702093634903,15.729316256022893,17.626965775781375,0.984375,6.70696520875242,0.4866545372434916,0.005719970156677443,0.0004972650422675286,0.0006538634787732825,0.0006538634787732825
116,1682238.8888888888,64,63,0.01705862868898587,0.017562870280322322,17.224823482569132,17.713443641205163,1.0,13.94423519808263,0.4712350102527249,0.005182625863770977,0.0004934616333580064,0.000504241591336451,0.000504241591336451
116,1728130.5555555555,64,63,0.06294303321038484,0.06192690054128069,77.93602692655973,76.69481980237535,1.0,19.8331435499603,0.4384826975247937,0.006116956202593589,0.0004892367906066536,-0.001016132669104157,0.001016132669104157
117,525.0,64,63,0.02876662585118884,0.027373682393802255,38.443105514626815,35.99740525112414,1.0,6.1125592369325314,0.29220337754970543,0.00441306266548985,0.00029416090601559053,-0.0013929434573865841,0.0013929434573865841
117,77488.88888888889,64,63,0.022935292098514186,0.02161348810323092,39.083613867696194,34.788512701824125,0.96875,5.888474039962555,0.29631433871114354,0.0047169811320754715,0.0002947678703021371,-0.0013218039952832654,0.0013218039952832654
117,154330.55555555556,64,63,0.029306611386445997,0.02893612578830544,38.39289435452455,36.25120913630003,0.96875,5.661202928618839,0.29950809540495904,0.004470938897168405,0.00029801817910892565,-0.0003704855981405582,0.0003704855981405582
117,230352.77777777778,64,63,0.020828640312767776,0.020094437749795666,33.30718807374249,31.207328157416836,0.96875,5.536849412496977,0.30179338709688597,0.0028198278420896407,0.0002967799376762131,-0.0007342025629721097,0.0007342025629721097
117,306675.0,64,63,0.018353087599170884,0.01771483569187305,30.029687952125883,27.00748557318271,0.96875,5.987668618998196,0.30428456332765275,0.004083484573502722,0.00030243459851807047,-0.0006382519072978335,0.0006382519072978335
117,381552.7777777778,64,63,0.022554319290444512,0.02126275806020814,38.284148488500534,34.287083574704994,0.96875,5.50348208048312,0.3025495111131369,0.004746366063482646,0.00029660388551090017,-0.0012915612302363717,0.0012915612302363717
117,457880.5555555555,64,63,0.02533652963189754,0.02389268733278704,32.64865826490826,28.224809419462698,0.96875,6.0598651167587745,0.30341501910017565,0.005540581012279126,0.0002994460248540201,-0.001443842299110501,0.001443842299110501
117,533469.4444444444,64,63,0.020042182502077843,0.020030788363749098,29.576612139736305,28.86717556019909,0.984375,6.040479733502829,0.2972401867134185,0.004920966298836862,0.0002981959147159684,-1.1394138328745668e-05,1.1394138328745668e-05
117,609427.7777777778,64,63,0.029305437364263692,0.028460036464582766,39.08998187002143,34.5829223924492,0.96875,5.791990056561412,0.3001909834179536,0.005270290618882698,0.00030111412225233364,-0.0008454008996809266,0.0008454008996809266
117,684672.2222222222,64,63,0.1097574220867465,0.1095638075878944,68.80258931391273,65.44236643529051,0.96875,6.496543967501054,0.300803222772314,0.007587988375847595,0.0003228410008071025,-0.00019361449885210713,0.00019361449885210713
117,754858.3333333334,64,63,0.04743927766337688,0.04465416017428225,37.73077140892152,39.220769962320645,0.96875,4.815956181290224,0.30438171185460955,0.004206098843322818,0.00030039050765995795,-0.0027851174890946365,0.0027851174890946365
117,830272.2222222222,64,63,0.019390739918762417,0.020837103434129135,28.415615991558976,32.361168811497855,0.96875,5.285807954809025,0.2985561350995764,0.003919794964571084,0.00030147723846849563,0.0014463635153667172,0.0014463635153667172
117,905447.2222222222,64,63,0.01863031142449568,0.020166488139560623,31.409142766108367,35.65618991761751,0.96875,5.79210048684079,0.30433970864367305,0.0036095653481726577,0.0003007518796992481,0.001536176715064945,0.001536176715064945
117,980780.5555555556,64,63,0.05294214210434743,0.05298424843768453,39.75920653359617,37.65713360948698,0.96875,4.5199177537691995,0.2998678141558518,0.003932839207381637,0.00030248033877797946,4.2106333337101065e-05,4.2106333337101065e-05
117,1055661.111111111,64,63,0.024971577159889537,0.025404762500503948,32.5111413675819,33.046466881704745,0.96875,6.2628665819070335,0.3011525038497793,0.0041279669762641896,0.00029481132075471697,0.0004331853406144108,0.0004331853406144108
117,1132450.0,64,63,0.02028355377600308,0.021702107126430593,36.34813307687795,39.14277034269451,0.96875,4.656529514889979,0.2991202743788698,0.0029917726252804786,0.0002991325157044571,0.0014185533504275129,0.0014185533504275129
117,1208200.0,64,63,0.020286860011809404,0.020879587816199086,34.782206252036204,35.74179914035189,0.96875,5.568701426412858,0.3011065463033548,0.005219206680584551,0.0002981959147159684,0.0005927278043896811,0.0005927278043896811
117,1284138.888888889,64,63,0.02011288319654301,0.01908928589740221,33.97859623339398,32.486843726468535,0.96875,5.368809128612209,0.2987794629344777,0.004516711833785004,0.0003010687942194792,-0.0010235972991408,0.0010235972991408
117,1359388.888888889,64,63,0.01875483152870312,0.018446124155609842,35.8360769697965,34.58292239246458,0.96875,4.504163397931662,0.3007612955782375,0.004377358490566038,0.00030184123151222455,-0.00030870737309327684,0.00030870737309327684
117,1434422.2222222222,64,63,0.01752095389185035,0.016858363596606314,32.85196028094693,31.37012179279185,0.96875,4.922467046169125,0.2991997243110972,0.002884907379289402,0.0003036283588887202,-0.0006625902952440352,0.0006625902952440352
117,1509022.222222222,64,63,0.01823837872480965,0.018323831854407124,33.42281895295721,33.200243733064426,0.96875,5.1210786627423515,0.30104641920576863,0.004092149136101849,0.00030307622367025305,8.545312959747434e-05,8.545312959747434e-05
117,1583772.222222222,64,63,0.02563739026831296,0.026202170360247575,31.028435975906998,31.37012179274708,0.96875,5.64772946681844,0.2950694680846585,0.004250151791135397,0.00030353619669145547,0.0005647800919346135,0.0005647800919346135
117,1658386.1111111112,64,63,0.01865271024627393,0.01963606279610058,33.92911414909963,36.72583123353102,0.9841269841269841,5.837720908428222,0.28951987318774486,0.0033318188702105103,0.0003028467595396729,0.0009833525498266493,0.0009833525498266493
118,188.88888888888889,64,62,0.03678999209329882,0.049040949469044234,39.929435468162204,62.20429434017541,0.9841269841269841,6.502089583909133,0.6348219567776693,0.0057692307692307696,0.0004272591326639607,0.012250957375745414,0.012250957375745414
118,53213.88888888889,64,64,0.04850166338504288,0.05001202071721834,56.99195937055525,60.26855915447294,0.984375,7.05326423456259,0.651533383031269,0.007357714780350574,0.00043271311120726956,0.0015103573321754576,0.0015103573321754576
118,105363.88888888889,64,62,0.05603520909345506,0.055250676605099705,72.84249086014918,65.22771296165811,0.9841269841269841,7.14001686204573,0.6386385209646506,0.005820219874973055,0.0004310344827586207,-0.0007845324883553537,0.0007845324883553537
118,157952.77777777778,64,63,0.1525327203599662,0.1537221121889348,181.21158734115164,182.73936701334085,1.0,7.648247851645158,0.6565979917986232,0.005647354110018824,0.0004182350480970305,0.0011893918289686,0.0011893918289686
118,212100.0,64,63,0.03708654647696454,0.04648675940531858,35.85690786301906,54.894233643664236,1.0,7.355444401703845,0.6340879461353607,0.006786850477200424,0.00042408821034775233,0.009400212928354038,0.009400212928354038
118,265500.0,64,63,0.12553229027682464,0.126997706275486,138.62115772270926,140.44385750308166,1.0,7.498028120210178,0.6684542883214905,0.00668535691179642,0.00043122035360068997,0.0014654159986613735,0.0014654159986613735
118,318025.0,64,63,0.09371170853783578,0.09460748034669958,128.00499900011135,130.09623993430932,1.0,6.9480576064839585,0.6510805680704779,0.0041548217800131204,0.00043725404459991256,0.0008957718088637989,0.0008957718088637989
118,369783.3333333334,64,63,0.042804801977472565,0.04326045577356576,28.189158093333237,30.11082431530477,1.0,6.2448441891291155,0.6954362055036918,0.0022113022113022115,0.0004912797838368951,0.0004556537960931986,0.0004556537960931986
118,415850.0,64,63,0.054526567762248505,0.05308304535039179,56.41362435743434,54.521812561921394,1.0,7.734634556866864,0.7145406915605855,0.004903225806451613,0.0005159958720330237,-0.001443522411856718,0.001443522411856718
118,459772.22222222225,64,64,0.09298561568704028,0.09408986807864483,106.27056926017839,106.80854649613234,0.984375,5.846867225005552,0.667164253135913,0.004899559039686428,0.0004898359049718344,0.0011042523916045544,0.0011042523916045544
118,506005.5555555555,64,64,0.07053439046205702,0.07364667659729134,74.66738937612406,78.8301874232401,0.984375,6.526036712775139,0.6783239325046048,0.005246065450911816,0.0004995004995004995,0.0031122861352343156,0.0031122861352343156
118,551394.4444444444,64,62,0.09263215689789855,0.09552329190988443,119.44027666312851,124.25864857925278,0.9841269841269841,7.095972653877504,0.732887516035491,0.007169287696577244,0.00046242774566473987,0.0028911350119858736,0.0028911350119858736
118,600394.4444444444,64,63,0.058443366554085094,0.05923981039619976,71.48698683768058,72.27725493918138,1.0,8.12421014804392,0.7356428557747707,0.006761482863138261,0.0004662004662004662,0.0007964438421146636,0.0007964438421146636
118,648958.3333333334,64,63,0.08628193796627341,0.08659557423496139,95.3839262616646,95.77350572795761,0.96875,8.342990916717145,0.696246309166156,0.003232062055591467,0.00043084877208099956,0.00031363626868798067,0.00031363626868798067
118,701563.8888888889,64,62,0.1279939631370941,0.13088870070541495,155.79139188593223,160.8985728317839,0.9841269841269841,6.850367378940842,0.6926837817117502,0.003730524467851657,0.00043878894251864854,0.002894737568320843,0.002894737568320843
118,753116.6666666666,64,63,0.08606049920225402,0.08786512443988596,95.42566920534387,98.51059227972071,1.0,5.5782699533365685,0.7038151767062749,0.007006071929005138,0.00046696240952603317,0.001804625237631946,0.001804625237631946
118,801666.6666666666,64,64,0.1479764705609594,0.14824280224843472,165.0266532906196,164.8030836581041,0.984375,7.271479127474366,0.6841822461430798,0.0065090041223692776,0.0004338394793926247,0.0002663316874753352,0.0002663316874753352
