record,t0_ms,cv_ref,cv_det,sdnn_det,mean_rr_det,bsqi,frac_short,frac_long,lag1,abs_d
100,213.88888888888889,0.048219551756096,0.05048229821479158,41.03831233665494,812.9248031071314,0.9841269841269841,0.0,0.0,-0.1648305962224903,0.0022627464586955845
100,52208.333333333336,0.03038339829001703,0.030981902436049456,25.16285147683604,812.1790302830929,0.9841269841269841,0.0,0.0,0.46935922616901465,0.0005985041460324254
100,104163.88888888889,0.03189434105760824,0.033056842797993154,26.426929025043606,799.438990182328,1.0,0.0,0.0,0.36132007310128145,0.0011625017403849164
100,155300.0,0.059062327580420806,0.06157827369291393,49.62668081627653,805.9121803862339,0.96875,0.0,0.0,-0.15744056637560705,0.002515946112493124
100,206897.22222222222,0.049801359222739934,0.05020007302458744,40.81791099672462,813.1046139461283,1.0,0.0,0.0,-0.01850607622312193,0.000398713801847507
100,259016.66666666666,0.056681783681015674,0.056627787480967605,45.63411445352702,805.8608058608061,0.984375,0.0,0.0,-0.27221829325791685,5.399620004806899e-05
100,310583.3333333333,0.0626764778893994,0.06355401490837213,50.37330487217333,792.606178300429,0.96875,0.0,0.0,-0.04688899509370071,0.0008775370189727377
100,361269.44444444444,0.04847109248451064,0.049438777565697964,36.94529427177348,747.2938468730905,1.0,0.0,0.0,0.741957229484591,0.0009676850811873236
100,409138.88888888893,0.04688239980663864,0.047453277020086435,35.30795488709998,744.0572517711374,1.0,0.0,0.0,0.6938494034092956,0.0005708772134477916
100,456836.1111111111,0.06113207831362024,0.06382736740712427,48.83400732141436,765.0951199338297,0.96875,0.0,0.0,0.08923187231370806,0.0026952890935040344
100,505788.8888888889,0.03925439665697843,0.03795356832379095,30.31873954041529,798.8376555732226,0.9841269841269841,0.0,0.0,0.6085618947835959,0.0013008283331874745
100,556761.111111111,0.03177813535929316,0.0312100186502035,24.316361134126613,779.1203653756247,1.0,0.0,0.0,0.46280273869975036,0.0005681167090896555
100,606711.1111111111,0.03092823551149725,0.03164423153745975,24.683295750760514,780.0251278512158,0.984375,0.0,0.0,0.40097850991969436,0.000715996025962503
100,656638.8888888889,0.04693822766135312,0.047857298971074054,36.5895701127426,764.5556874168368,0.9841269841269841,0.0,0.0,0.7004196557238381,0.0009190713097209369
100,705583.3333333334,0.045317793145765804,0.045531206833972736,35.40879446846689,777.6818786636445,1.0,0.0,0.0,0.6374694248875495,0.00021341368820693152
100,755422.2222222222,0.059455476050304,0.05980700436760726,47.508209482435085,794.3586204455767,0.984375,0.0,0.0,-0.08135821315672143,0.0003515283173032638
100,806269.4444444444,0.05786603106628075,0.05924639683212305,47.278654500838314,798.0005034703495,0.96875,0.0,0.0,-0.09971924765943957,0.0013803657658423008
100,857291.6666666666,0.08564844295013804,0.08638381663703977,69.95949044003815,809.8680188441781,0.96875,0.0,0.0,-0.18801234390335414,0.0007353736869017274
100,909100.0,0.03084931616595983,0.030899209474011834,25.11827836694346,812.9100645137703,0.9841269841269841,0.0,0.0,0.42242142970617613,4.9893308052002816e-05
100,961158.3333333333,0.0680881503134468,0.06873814340571383,54.979810690631346,799.8442781051484,0.984375,0.0,0.0,-0.16951645781149824,0.0006499930922670288
100,1012350.0,0.0525992571245395,0.052943781446598934,42.36340263914942,800.1582335383188,1.0,0.0,0.0,0.01565294641606266,0.0003445243220594335
100,1063597.2222222222,0.05979010455126215,0.05950842648606692,47.93716522055248,805.5525587082412,1.0,0.0,0.0,-0.19791970358438937,0.00028167806519523164
100,1115147.222222222,0.030115302210865016,0.030207273771741167,24.358894122882994,806.3916759568909,0.984375,0.0,0.0,0.42980480480515654,9.19715608761508e-05
100,1166727.777777778,0.09666366376256987,0.09731456728045945,78.27209287813695,804.3204123033058,0.9841269841269841,0.0,0.0,-0.32050198909676,0.0006509035178895867
100,1218250.0,0.07961456020941063,0.07960837983318282,64.83014209812008,814.3632898191103,0.96875,0.0,0.0,-0.29931229943881815,6.180376227807316e-06
100,1270369.4444444445,0.04922477303836884,0.05111698530773254,41.71971020099215,816.1613982090831,0.96875,0.0,0.0,-0.20920845476181293,0.0018922122693636953
100,1322600.0,0.03278364240900139,0.03391113038406661,27.461340850521523,809.8031690333871,0.9841269841269841,0.0,0.0,0.5164384714409288,0.0011274879750652195
100,1374413.8888888888,0.05596647198254067,0.056164044739535034,45.42935862122678,808.8690697386351,0.984375,0.0,0.0,-0.16725423891299224,0.00019757275699436305
100,1426177.7777777778,0.05591340224016531,0.057846839029851285,47.2780057644783,817.2962698978411,0.9841269841269841,0.0,0.0,-0.27780016457160694,0.001933436789685973
100,1478491.6666666665,0.07294897986878904,0.13807178523216046,113.72873805971611,823.692819416271,0.9841269841269841,0.0,0.01639344262295082,-0.018881278035733747,0.06512280536337142
100,1530422.2222222222,0.0789307975054676,0.0787849768933292,63.42294054580384,805.0131261912437,1.0,0.0,0.0,-0.3230156105260352,0.00014582061213840036
100,1581894.4444444445,0.07199904460721622,0.07131188634732848,56.87435574797981,797.5438410221001,0.984375,0.0,0.0,0.10857417660543606,0.0006871582598877435
100,1632897.222222222,0.06544801857421723,0.06425265464034381,48.939879357085985,761.678713992884,1.0,0.0,0.0,0.41152445512265234,0.001195363933873414
100,1681830.5555555555,0.03247703805740977,0.03330498313258216,26.307906444678228,789.9090157154677,0.96875,0.0,0.0,0.5133988674988834,0.0008279450751723857
100,1732327.7777777778,0.06284601536970064,0.06386129784761903,49.38399100955483,773.3007733007738,0.984375,0.0,0.0,0.050525835328276675,0.0010152824779183917
101,230.55555555555557,0.058239818985841726,0.059035840299066125,49.94369295545755,845.9893634519436,0.9841269841269841,0.0,0.0,0.845719842100181,0.0007960213132243987
101,54327.777777777774,0.03879836349055745,0.040092973299566535,35.05810212460749,874.4201100442335,0.96875,0.0,0.0,0.5810069766979843,0.001294609809009084
101,110255.55555555556,0.05507495606239334,0.05548625725334784,45.335626453629054,817.060452404071,0.96875,0.0,0.0,0.7275322044248536,0.0004113011909544981
101,162616.6666666667,0.03624529643816801,0.12873650530804276,117.07382539481706,909.4065829632469,0.9384615384615385,0.0,0.01639344262295082,0.04281602556976045,0.09249120886987475
101,219886.11111111112,0.046405288481982394,0.046204483771889356,43.18665096762035,934.6852825113687,0.984375,0.0,0.0,0.5937527756656893,0.0002008047100930388
101,279783.3333333334,0.1305999608812612,0.07793825199341048,74.62686583786241,957.5126966431318,0.9545454545454546,0.0,0.0,0.0014353259034312444,0.05266170888785071
101,342069.44444444444,0.0848248777547883,0.08442923073682312,82.00933298096137,971.3381522638186,0.96875,0.0,0.0,0.017213758144819364,0.00039564701796517
101,404186.1111111111,0.03427154738654939,0.03502812724743856,35.857001549909675,1023.6631064120542,0.96875,0.0,0.0,0.34931753066030796,0.0007565798608891727
101,469591.6666666666,0.050297207673560315,0.05044282467278155,49.350776611034014,978.3507749847166,0.96875,0.0,0.0,0.6438056881753406,0.00014561699922123472
101,532166.6666666666,0.04497583214368188,0.045182763595961246,44.285835286363984,980.1488833746895,0.96875,0.0,0.0,0.721127272904257,0.0002069314522793672
101,594866.6666666666,0.048636830964559605,0.04850446414970571,48.7626243501645,1005.3224008343232,0.96875,0.0,0.0,0.278550083434588,0.0001323668148538945
101,659236.1111111111,0.0369921960996483,0.03762177608867506,38.254961660995015,1016.8302945301552,0.96875,0.0,0.0,0.39198513896535925,0.0006295799890267614
101,724311.1111111111,0.031299217144262606,0.03178722220998429,32.087867351179845,1009.4580501312607,0.96875,0.0,0.0,0.1967111846898189,0.00048800506572168473
101,788950.0,0.03967822403659055,0.03987862452806322,40.10373612092919,1005.6449186883956,0.984375,0.0,0.0,0.47401015827841475,0.00020040049147267147
101,853302.7777777778,0.05332760743005085,0.10588293648851325,101.74025324850503,960.8748739183518,0.9538461538461539,0.015873015873015872,0.0,0.5152090419894217,0.052555329058462406
101,915891.6666666666,0.069544047912754,0.06921898344822822,66.37644720157421,958.934152091672,0.9841269841269841,0.0,0.0,0.7691411188519953,0.00032506446452577886
101,977163.8888888889,0.06660038771883763,0.06625228642838654,64.82988865092958,978.530585823714,0.96875,0.0,0.0,0.7668640044227626,0.0003481012904510833
101,1039722.2222222221,0.04458904771764512,0.045067072724259714,44.09764924350506,978.4893177623047,0.9841269841269841,0.0,0.0,0.5283900898484758,0.00047802500661459774
101,1102491.6666666665,0.035888262867520414,0.036315170842513136,36.36479778867836,1001.3665623763809,0.96875,0.0,0.0,0.46795677013613385,0.00042690797499272265
101,1166583.3333333333,0.03875577605536029,0.03887928029177985,38.268274232603815,984.2845326716291,0.96875,0.0,0.0,0.524880490834869,0.000123504236419561
101,1229583.3333333333,0.035830617774850075,0.03497039912697313,33.67883225879595,963.0668536699377,0.96875,0.0,0.0,0.3478013001923441,0.0008602186478769425
101,1291111.111111111,0.03456569303246682,0.03447907102740115,33.49615118126228,971.4922758400965,0.984375,0.0,0.0,0.3715817107856394,8.662200506567158e-05
101,1353369.4444444445,0.048620430697195315,0.04619150455212685,43.214729777522855,935.5557953033393,0.96875,0.0,0.0,0.6480775092680984,0.002428926145068462
101,1413469.4444444445,0.03360566266724996,0.03366764091447049,33.48360518896975,994.5337504944802,0.96875,0.0,0.0,0.3752461879274716,6.197824722053297e-05
101,1477158.3333333333,0.06700584102695559,0.050408202419424175,51.2861565635789,1017.4168905459009,0.9841269841269841,0.0,0.0,0.3701593544720755,0.016597638607531412
101,1541919.4444444445,0.04244962337581685,0.04200857556235596,41.89225016521478,997.2309130794376,0.96875,0.0,0.0,0.44620917606758304,0.0004410478134608889
101,1605772.222222222,0.04140113692996279,0.04143830397699367,41.31291334543408,996.9740404523022,0.984375,0.0,0.0,0.536193672098852,3.7167047030876865e-05
101,1669561.1111111112,0.03987840190521694,0.04113899691889188,40.795765096502365,991.6567770705198,0.9841269841269841,0.0,0.0,0.4769642578482966,0.0012605950136749464
101,1732975.0,0.040737244102995195,0.04129792784215792,41.11449842331226,995.5583868627325,0.984375,0.0,0.0,0.5534064270093547,0.0005606837391627234
103,736.1111111111112,0.03988598143843804,0.041011980671745406,35.10044510586906,855.8583255660947,1.0,0.0,0.0,0.5859320568118142,0.001125999233307369
103,55527.77777777778,0.03376580555542031,0.03375468149086152,28.71277342934496,850.6308506308505,0.984375,0.0,0.0,0.48600037982524397,1.1124064558790114e-05
103,109938.88888888888,0.03605916200340708,0.036243222382084175,30.034331442604127,828.6882199925677,0.96875,0.0,0.0,0.5323456790123062,0.0001840603786770964
103,163061.1111111111,0.036747754248105016,0.03612243488982162,31.430298563643476,870.1046499082966,1.0,0.0,0.0,0.49695136019129577,0.0006253193582833952
103,218605.55555555556,0.04144818657896517,0.04236404726200607,34.339757085827934,810.5872622001658,1.0,0.0,0.0,0.6044692395927451,0.0009158606830408991
103,270488.8888888889,0.03647896034224181,0.0366322447157521,31.776337986695825,867.4417370069543,0.984375,0.0,0.0,0.4809262710564638,0.00015328437351028873
103,325994.4444444445,0.04576352621454039,0.04525050275643271,38.25796813046115,845.4705649656563,1.0,0.0,0.0,0.6510639222447436,0.0005130234581076781
103,380263.88888888893,0.038794054919724895,0.03949996084543311,34.473608127563864,872.7504379678294,0.984375,0.0,0.0,0.5102237521513794,0.0007059059257082181
103,436080.55555555556,0.03602320831617356,0.036805823303400965,31.688914520591776,860.9755651808399,0.9841269841269841,0.0,0.0,0.47483385923334254,0.0007826149872274049
103,491161.1111111111,0.03853364204763781,0.039634009119931396,34.357456389971865,866.868054806345,0.96875,0.0,0.0,0.5170894732256346,0.0011003670722935857
103,546711.1111111111,0.03811499777692343,0.03796601677866338,32.26819178353248,849.9230238360682,0.984375,0.0,0.0,0.6011926589478276,0.00014898099826005096
103,601125.0,0.037039371320511154,0.03802560483462489,32.395676575404195,851.9437551695625,1.0,0.0,0.0,0.41887201822963815,0.0009862335141137338
103,655688.8888888889,0.03398883288032762,0.03411039345170626,29.40561907847626,862.0721165268571,0.9841269841269841,0.0,0.0,0.45194952179315545,0.00012156057137863857
103,710736.1111111111,0.03292045118484045,0.03265275345070449,28.041419513173818,858.7765670514632,0.96875,0.0,0.0,0.41173250935598793,0.0002676977341359646
103,765638.8888888889,0.04012270891587828,0.040581302516191534,35.69671879548472,879.6346243751562,1.0,0.0,0.0,0.5346972187651671,0.0004585936003132507
103,821963.8888888889,0.03578258108325625,0.03658215431891293,32.34542511374899,884.1859020048593,0.96875,0.0,0.0,0.4373931180529308,0.0007995732356566795
103,878533.3333333333,0.04418334910019689,0.04500541373125523,39.4588408231022,876.7576509511996,0.96875,0.0,0.0,0.5811775759475969,0.0008220646310583418
103,934619.4444444444,0.035439538652846866,0.03605600058769314,32.098618856703105,890.2434638760019,0.96875,0.0,0.0,0.5482312234358788,0.0006164619348462755
103,991580.5555555555,0.036134239301127344,0.03641364647655012,31.893205305727946,875.8585967562112,1.0,0.0,0.0,0.4657785008065704,0.0002794071754227759
103,1047613.8888888889,0.09258531881800738,0.09252893915540035,77.08698227665865,833.1121374599651,0.921875,0.0,0.0,0.8759432672144039,5.6379662607033976e-05
103,1100758.3333333335,0.09000952032181783,0.08698967659013174,73.67234450669277,846.9090516776365,0.96875,0.0,0.0,0.7950033632261319,0.003019843731686095
103,1154686.1111111112,0.07595330481169295,0.07316818279225795,63.74485577986603,871.2100444103278,0.9841269841269841,0.0,0.0,0.6471032753182361,0.0027851220194349963
103,1210100.0,0.07993580754401453,0.08067082934184379,68.48041596052143,848.8869709066048,1.0,0.0,0.0,0.8639970116563065,0.0007350217978292634
103,1264436.1111111112,0.04246854569013295,0.0433429981478073,38.297459793995344,883.5904628331022,1.0,0.0,0.0,0.6505169153914858,0.0008744524576743545
103,1321000.0,0.08422932483070235,0.08551914007860952,74.01079246203267,865.4295680943666,1.0,0.0,0.0,0.5980950159999991,0.0012898152479071667
103,1376397.222222222,0.03907960969219702,0.0396453469731504,35.04450780738805,883.9500845110967,1.0,0.0,0.0,0.5524128811288438,0.0005657372809533753
103,1433044.4444444445,0.04723038609000187,0.04479300239499169,39.96527455028381,892.221383104972,0.96875,0.0,0.0,0.49246842819199466,0.0024373836950101826
103,1490225.0,0.039996746991484776,0.04076708773560267,35.933445549668114,881.4327327651309,0.96875,0.0,0.0,0.5407141895419427,0.0007703407441178936
103,1546655.5555555555,0.040026522111852494,0.03882969125784748,34.19783288037836,880.7134894091381,0.96875,0.0,0.0,0.5331010452966156,0.0011968308540050154
103,1603091.6666666667,0.03388682755820096,0.03447305303115402,30.58403345483393,887.1866796130442,0.96875,0.0,0.0,0.4291419608712347,0.0005862254729530614
103,1659805.5555555557,0.03920017033106784,0.03873569214010889,34.51205713565645,890.9627072319929,1.0,0.0,0.0,0.3890356400663799,0.0004644781909589474
103,1716941.6666666665,0.04438822693979628,0.044961624761368744,39.94594669434361,888.4453554860271,1.0,0.0,0.0,0.6841068727349372,0.0005733978215724661
105,547.2222222222223,0.12464199793312487,0.12497932514921718,90.35915899817299,722.992854140395,0.9841269841269841,0.0,0.0,-0.3905986802174817,0.0003373272160923091
105,46816.66666666667,0.09930566354436507,0.099395440853948,71.77136663449176,722.0790613520478,0.9841269841269841,0.0,0.0,-0.3688558091602403,8.977730958292796e-05
105,93027.77777777777,0.09965943274462842,0.09765438903299584,69.69265292953092,713.6663658402789,0.96875,0.0,0.0,-0.4552107847663576,0.002005043711632584
105,138730.55555555556,0.07722060892132124,0.076131551102645,54.53808386250542,716.3663825655409,0.96875,0.0,0.0,-0.1977652580017102,0.0010890578186762423
105,184566.66666666666,0.12882661882408084,0.12805592160305593,91.70644913867525,716.143759622021,0.984375,0.0,0.0,-0.4074978488626042,0.0007706972210249075
105,230372.22222222225,0.031212608280412057,0.03141893252284142,22.744374092690556,723.9066469287428,0.9841269841269841,0.0,0.0,0.4949282988656047,0.0002063242424293621
105,276713.8888888889,0.10703378541823215,0.10812461416552249,77.30385266288789,714.9514776029382,0.9841269841269841,0.0,0.0,-0.48617500187708823,0.0010908287472903427
105,322511.1111111111,0.10581867111736758,0.10697722052497283,77.18735797514351,721.5307856790395,0.9841269841269841,0.0,0.0,-0.36831576559351564,0.00115854940760525
105,368661.1111111111,0.08570452031162594,0.08457254364872317,61.239554884991456,724.1068110633328,0.984375,0.0,0.0,-0.41954407501116925,0.0011319766629027672
105,415005.5555555555,0.1117506314131422,0.11139463896691448,79.95198379957978,717.7363699102832,0.984375,0.0,0.0,-0.3983521132969481,0.00035599244622772086
105,460683.3333333333,0.08388007744132642,0.06624226290267182,47.703862862804435,720.1424101844858,0.96875,0.0,0.0,-0.2154555393603056,0.017637814538654595
105,507066.6666666667,0.07885142569945347,0.07841891260799633,56.76889670942431,723.9184378034289,1.0,0.0,0.0,-0.36854282808397915,0.0004325130914571429
105,553413.8888888889,0.029597489817101672,0.030458660576048235,22.00577160329442,722.4799510914505,0.96875,0.0,0.0,0.5210150257427792,0.0008611707589465632
105,599655.5555555556,0.07190353240493659,0.10021695193571209,72.89571224740651,727.3790595244624,0.96875,0.0,0.0,-0.4861946814025424,0.0283134195307755
105,646266.6666666666,0.11137019051906918,0.11407581641733353,82.52005060720914,723.3790052864389,0.96875,0.0,0.0,-0.48794157970889585,0.002705625898264341
105,692533.3333333333,0.07475819309254723,0.07460598288856264,54.74646962423544,733.8080339482835,0.96875,0.0,0.0,-0.2791398674733713,0.00015221020398459295
105,739466.6666666667,0.07936136015479003,0.07809692899566982,56.78857497365557,727.155032905382,0.96875,0.0,0.0,-0.26028329349418394,0.0012644311591202134
105,786019.4444444444,0.07360859560814835,0.07321197901106018,52.43343625724685,716.1865717265435,1.0,0.0,0.0,-0.3738376188695638,0.000396616597088173
105,831791.6666666666,0.08037500382201973,0.08074295419930907,56.839764392112606,703.9594346747223,0.90625,0.0,0.0,-0.32344966028475947,0.00036795037728934443
105,876847.2222222221,0.033645361460073527,0.03470857017544544,24.52315227411441,706.5445839501422,0.9841269841269841,0.0,0.0,0.6063990891498764,0.0010632087153719105
105,922022.2222222222,0.030593581071712332,0.031139781173340878,22.65611580515563,727.5618180821318,0.9841269841269841,0.0,0.0,0.5065363375683775,0.000546200101628546
105,968605.5555555556,0.029150973725229682,0.029376154444339917,21.514200929945112,732.369547236309,0.984375,0.0,0.0,0.4903214355230556,0.00022518071911023507
105,1015452.7777777778,0.06255317122236025,0.07542736500863985,52.79942675920361,700.00359621678,0.9393939393939394,0.0,0.0,0.08117447447957775,0.012874193786279603
105,1060247.2222222222,0.031233019155475057,0.05013664751645477,34.581972142467684,689.754378393927,0.96875,0.0,0.0,-0.005853821115287268,0.01890362836097971
105,1104436.1111111112,0.032031638353103624,0.0330701654375904,23.22068561100639,702.1641804250474,0.9692307692307692,0.0,0.0,0.4797582985356679,0.0010385270844867761
105,1149352.777777778,0.0796770717138652,0.0800729642340847,56.094556884236994,700.5430287337757,1.0,0.0,0.0,-0.28218327453421466,0.0003958925202195013
105,1194191.6666666665,0.15459446897023935,0.25476657961438054,173.99760732842552,682.9687300107869,0.7972972972972973,0.0,0.03278688524590164,-0.29214974664892396,0.1001721106441412
105,1237175.0,0.06717301599409063,0.14546529455921914,96.90885682416467,666.1991584852766,0.9384615384615385,0.0,0.016129032258064516,0.0567965363958274,0.0782922785651285
105,1279141.6666666667,0.165560034600173,0.27585921804993574,188.0656914241769,681.7451769552013,0.855072463768116,0.0,0.03389830508474576,-0.037693742741158553,0.11029918344976275
105,1321341.6666666667,0.1610517251121982,0.3355924572859473,240.16366469308613,715.6408300573055,0.8142857142857143,0.0,0.07017543859649122,0.5336573656970134,0.17454073217374907
105,1364030.5555555555,0.028443734660612924,0.029200235566795834,19.10663811766286,654.331643111448,0.9841269841269841,0.0,0.0,0.5547013610010411,0.0007565009061829102
105,1405866.6666666665,0.030085996326407228,0.031394741197504204,20.408848153137644,650.072189630284,0.9841269841269841,0.0,0.0,0.5186761753789947,0.0013087448710969764
105,1447491.6666666665,0.082136328394408,0.08652900246672411,57.94116682599352,669.6155644262232,0.96875,0.0,0.0,-0.2236321267080195,0.004392674072316111
105,1490433.3333333335,0.03017047661183566,0.031877337894703,21.531347656930777,675.4437189219808,0.96875,0.0,0.0,0.4287762416784439,0.0017068612828673377
105,1533666.6666666667,0.029988085582091407,0.031086296859545566,21.041051386059678,676.8593725115468,0.984375,0.0,0.0,0.5364997227864382,0.0010982112774541586
105,1577022.222222222,0.10183725648871012,0.09996258813267754,69.12880579400564,691.5467785033028,0.984375,0.0,0.0,-0.3603154945270623,0.0018746683560325744
105,1621275.0,0.12302014790640727,0.14754349754661214,104.24605908861989,706.5445839501422,0.9104477611940298,0.0,0.01639344262295082,0.5463191361605333,0.024523349640204875
105,1665708.3333333333,0.06806381420035613,0.14949351530349975,102.34528726481864,684.6135570298056,0.9242424242424242,0.0,0.01639344262295082,-0.0734036798751503,0.08142970110314361
105,1708844.4444444445,0.08005972019530717,0.08532904172423496,57.935494938452344,678.9657280540822,0.9384615384615385,0.0,0.0,-0.26998806192562275,0.005269321528927784
105,1752327.7777777778,0.031532228813634336,0.03154962555429626,22.056486524095245,699.1045420217898,1.0,0.0,0.0,0.5431487566565985,1.7396740661923538e-05
106,975.0,0.11338698568090795,0.11138076628522071,98.44059172749373,883.8203848895225,0.9841269841269841,0.0,0.0,0.8466022212783284,0.0020062193956872365
106,57472.22222222222,0.28342173314019076,0.2836712794933332,244.28588354123698,861.1583237385092,0.9682539682539683,0.0,0.0,-0.2622676004824205,0.0002495463531424491
106,111819.44444444444,0.4374237323673412,0.4419537960410752,354.8262927442008,802.8583438419505,0.9523809523809523,0.0,0.36065573770491804,-0.5633694254009127,0.004530063673733986
106,163866.6666666667,0.23065381300660162,0.23394332188589598,230.85571088391367,986.801884417593,1.0,0.08064516129032258,0.0,-0.14783810476064002,0.003289508879294356
106,227233.3333333333,0.1157420747320219,0.11653024258250931,112.32153586857926,963.8831377961814,0.984375,0.0,0.0,0.37054893012260587,0.000788167850487409
106,289002.7777777778,0.0600271620469646,0.05965491313410887,60.825610850760974,1019.6244978853676,0.984375,0.0,0.0,0.4066415321618777,0.0003722489128557341
106,354344.44444444444,0.062312184483063894,0.0626010680737842,62.0450043555038,991.1173445535308,1.0,0.0,0.0,0.555704255914522,0.00028888359072030273
106,417738.8888888889,0.1495305368112818,0.1729213942811247,152.51185653772743,881.9721652821238,0.96875,0.0,0.0,0.16188810431893533,0.0233908574698429
106,475438.8888888889,0.06400816084321011,0.06298622957333665,57.262267904266906,909.1236019707266,1.0,0.0,0.0,0.6846197117528966,0.0010219312698734606
106,533836.1111111111,0.0661277245926902,0.06671685046529259,63.57469494417372,952.9031196885788,0.9841269841269841,0.0,0.0,0.7343074767672674,0.000589125872602389
106,594955.5555555555,0.07041876294663661,0.07128593429593462,66.12797767337831,927.6441183874549,1.0,0.0,0.0,0.7607652736068419,0.0008671713492980071
106,654380.5555555556,0.0775719602227862,0.078041005604899,70.06486513922059,897.7955191138936,1.0,0.0,0.0,0.7480365196231412,0.000469045382112801
106,711402.7777777779,0.32626909747032107,0.33219005506765714,248.59438744335162,748.3498787846627,0.953125,0.015873015873015872,0.0,-0.5965145229612617,0.005920957597336074
106,759977.7777777778,0.3427873207456734,0.34262975914262556,241.1358430043227,703.7796238357269,0.96875,0.0,0.0,-0.9516727735354613,0.00015756160304786215
106,805083.3333333334,0.3840520710139109,0.38360022028696605,298.31893996855564,777.6818786636445,1.0,0.0,0.016129032258064516,-0.8898408265480879,0.00045185072694486905
106,854861.1111111111,0.3714044988676484,0.3862086351058166,306.26875782824766,793.0137495354904,0.9206349206349206,0.0,0.016666666666666666,-0.7412547746733755,0.014804136238168175
106,904505.5555555556,0.18259295765811456,0.18443399234613672,157.84936786683448,855.8583255660945,0.9841269841269841,0.0,0.0,-0.3435899851104471,0.0018410346880221584
106,959325.0,0.3052655674933065,0.30918795205431415,241.28379758976556,780.3790412486057,0.9365079365079365,0.0,0.0,-0.46227339539443957,0.00392238456100763
106,1009347.2222222221,0.2165637132397322,0.20892774274134232,177.17066475132557,847.9997075863075,0.9841269841269841,0.0,0.0,-0.4629375237133736,0.007635970498389877
106,1063613.8888888888,0.3887980030919693,0.39048368382356047,350.36386202747053,897.2560865969036,0.96875,0.016129032258064516,0.0,-0.6482926680482649,0.0016856807315911437
106,1121008.3333333335,0.41901091839909604,0.409829610107197,362.8898625599663,885.4652119085467,0.953125,0.0,0.0,-0.8429631445453946,0.00918130829189906
106,1177350.0,0.34605953923083743,0.3424277368521939,319.0056648741715,931.599956845399,0.953125,0.016129032258064516,0.0,-0.748651482924166,0.0036318023786435227
106,1236627.7777777778,0.32717148609910834,0.326939583207345,310.0982403410603,948.4879050096423,0.984375,0.07936507936507936,0.0,-0.7722018897901615,0.0002319028917633359
106,1297461.1111111112,0.05247257593426881,0.05134471346931469,54.26585485188282,1056.892739002505,0.9841269841269841,0.0,0.0,0.37280488173730125,0.0011278624649541172
106,1364902.7777777778,0.07948750590684069,0.0800607129942841,82.14188634794259,1025.9949390384154,0.984375,0.0,0.0,0.7368733271144304,0.0005732070874434197
106,1430355.5555555555,0.3922021132697851,0.40224335495394914,342.5876851220756,851.6925908230274,0.96875,0.0,0.0,-0.8241046775124389,0.010041241684164037
106,1485597.2222222222,0.4134525546130504,0.4223405281061492,362.69863873582176,858.7824624888065,0.9841269841269841,0.0,0.45901639344262296,-0.851594912517376,0.008887973493098777
106,1540994.4444444445,0.36363466118228027,0.3690187950613905,338.12520054995974,916.281785847002,0.9384615384615385,0.23809523809523808,0.0,-0.25919569870524134,0.005384133879110242
106,1600513.888888889,0.3824075055193747,0.3888418593848278,350.1121047868203,900.3971571906368,0.9393939393939394,0.046875,0.0,-0.025660034643385916,0.006434353865453102
106,1659825.0,0.44778246607288336,0.4640194958563271,409.6010682212212,882.7238335435042,0.921875,0.0,0.45901639344262296,-0.23971237728580885,0.016237029783443768
106,1716322.2222222222,0.3887069762274164,0.3952579067550616,327.1259099809645,827.6264798003951,0.9538461538461539,0.0,0.1111111111111111,-0.1950580262790688,0.006550930527645216
107,263.8888888888889,0.060554071452282705,0.02925347289790737,24.906533277878122,851.4043226525695,0.96875,0.0,0.0,0.4494605997741139,0.031300598554375336
107,54377.77777777778,0.03361209296028623,0.03855421752981878,32.762835265566856,849.7860251015929,0.96875,0.0,0.0,0.05335656103593184,0.004942124569532552
107,108713.88888888889,0.02918548761328557,0.029628555623528625,25.22055279637941,851.2245118135717,0.96875,0.0,0.0,0.4539260977674337,0.00044306801024305426
107,163163.8888888889,0.028399030734865372,0.02979991452293689,25.355700996608302,850.8648901355778,0.96875,0.0,0.0,0.4440578811642503,0.0014008837880715164
107,217619.44444444444,0.041302535670753884,0.04219363772923751,35.78728182990135,848.167727550617,0.984375,0.0,0.0,0.044020136355640664,0.0008911020584836254
107,271933.3333333333,0.028362148444963518,0.029009294879880833,24.672558129578213,850.5052684575822,0.96875,0.0,0.0,0.47283384763278874,0.0006471464349173152
107,326422.2222222222,0.028300229127334927,0.029346414162020475,24.943449445080514,849.9658359405904,0.96875,0.0,0.0,0.49053879299317693,0.0010461850346855477
107,380897.22222222225,0.027555345487777768,0.02808847940219303,23.879298488432493,850.1456467795867,0.96875,0.0,0.0,0.40939781971764144,0.0005331339144152604
107,435372.2222222222,0.028068814929508485,0.028880218870107107,24.552392350463258,850.1456467795877,0.96875,0.0,0.0,0.400777963788883,0.000811403940598622
107,489838.8888888889,0.03534390004009397,0.03563423362711231,30.268658908634226,849.4264034235975,0.96875,0.0,0.0,0.2171333364191456,0.00029033358701834044
107,544227.7777777778,0.04602100769033563,0.046060779993568224,39.07554932384913,848.3475383896129,0.96875,0.0,0.0,-0.007200857549362059,3.977230323259223e-05
107,598530.5555555556,0.04252036812526469,0.04175813095435109,35.43291616743678,848.527349228612,0.96875,0.0,0.0,0.011496130805645042,0.0007622371709136017
107,652827.7777777778,0.029156605089299133,0.030660830038841437,26.104763231185323,851.4043226525687,0.96875,0.0,0.0,0.45732110439951945,0.0015042249495423043
107,707277.7777777779,0.045435083307022964,0.04696874807677978,39.812039852184725,847.6282950336256,0.953125,0.0,0.0,0.32244019497185494,0.0015336647697568179
107,761486.1111111111,0.03678879667292152,0.0373057101984578,31.59454364633663,846.9090516776365,0.96875,0.0,0.0,0.38576295377463976,0.000516913525536275
107,815638.8888888889,0.05257675119956132,0.05616397526879363,47.424394552137066,844.3916999316725,0.96875,0.0,0.0,0.304907524367604,0.0035872240692323143
107,869641.6666666666,0.0547708014053365,0.05910993308565836,49.72062196114477,841.1551048297214,0.96875,0.0,0.0,0.3046120439027301,0.004339131680321857
107,923452.7777777778,0.05006715188470919,0.0521864694434324,44.09397272533696,844.9311324486645,0.96875,0.0,0.0,0.3307745152298948,0.002119317558723209
107,977505.5555555556,0.06945426164078267,0.07271926885111132,60.895094737612176,837.39971124148,0.96875,0.0,0.0,0.1618578114074806,0.0032650072103286576
107,1031111.1111111111,0.052257024732548465,0.055862727242467596,46.97917346585781,840.975293990724,0.96875,0.0,0.0,0.1746436463932924,0.00360570250991913
107,1084911.111111111,0.050967586539451146,0.05610578720241778,47.12305031511727,839.8964289567366,0.96875,0.0,0.0,0.1010446050465719,0.0051382006629666355
107,1138647.222222222,0.06381724637645027,0.0694458375713938,57.777877952105364,831.9847520408521,0.96875,0.0,0.0,0.1553129668936755,0.005628591194943536
107,1191941.6666666665,0.05152571406802343,0.05524678443744896,46.73933196285039,846.0099974826444,0.96875,0.0,0.0,-0.06064940238838473,0.0037210703694255318
107,1246100.0,0.032151253647536224,0.03996697736431281,33.94900583828045,849.4264034235947,0.96875,0.0,0.0,0.00038998116294355884,0.007815723716776586
107,1300458.3333333333,0.028768140750662956,0.028282395615994202,24.084839363712195,851.5841334915698,0.96875,0.0,0.0,0.47262121444760435,0.00048574513466875455
107,1354908.3333333333,0.05093772423582738,0.05189744344618121,43.73778498799774,842.7734023806931,0.96875,0.0,0.0,0.23788362315679817,0.0009597192103538293
107,1408822.2222222222,0.07286379396563263,0.07721575013990264,63.992410615099,828.7481569389009,0.96875,0.0,0.0,0.10554987920015636,0.004351956174270019
107,1461891.6666666667,0.04362038908556412,0.04976626357465123,42.013271385440305,844.2118890926753,0.96875,0.0,0.0,0.08309606072395098,0.006145874489087107
107,1515969.4444444445,0.04877969172965878,0.058415169596177104,49.08369970204202,840.256050634735,0.953125,0.0,0.0,-0.10163998551417257,0.009635477866518326
107,1569802.7777777778,0.06659620315366982,0.07168454294604926,59.71778463499247,833.0636170748396,0.96875,0.0,0.0,0.13082572690736735,0.005088339792379437
107,1623197.2222222222,0.028694304899655746,0.029745746833802534,25.288217180964814,850.1456467795839,0.96875,0.0,0.0,0.4423366376025823,0.0010514419341467879
107,1677688.8888888888,0.052848967848281705,0.05656084067142152,47.58661011644204,841.3349156687149,0.96875,0.0,0.0,0.0944061803813239,0.0037118728231398113
107,1731575.0,0.061727279037121933,0.07042778231178172,58.65815939658596,832.8838062358404,0.96875,0.0,0.0,-0.011854616885761683,0.008700503274659786
108,244.44444444444443,0.1354611197852472,0.1567450819274507,162.7857311380677,1038.5380462106805,0.7222222222222222,0.0,0.08928571428571429,-0.11967313921558993,0.021283962142203516
108,66769.44444444445,0.07446280636852887,0.11808680438079207,126.27604517228971,1069.3493302188954,0.725,0.0,0.0,0.23947121198587254,0.0436239980122632
108,136136.11111111112,0.060188431468001236,0.07366036097549233,78.68574846971738,1068.2237695780102,0.3684210526315789,0.0,0.0,0.12919440790566267,0.013471929507491098
108,204455.55555555556,0.0898097376910293,0.119897025865957,126.66299382770843,1056.4314912140997,0.9538461538461539,0.0,0.0,0.16552316580872467,0.0300872881749277
108,273200.0,0.09961479118664981,0.10022086271455032,106.32270471748951,1060.88395008451,0.9841269841269841,0.016129032258064516,0.0,0.41241391597898647,0.0006060715279005008
108,340952.7777777778,0.05412797489430574,0.05444828089902996,58.831236957313955,1080.4976022367325,0.984375,0.0,0.0,0.3681658010462621,0.0003203060047242204
108,410175.0,0.054773486053584904,0.1136462988824528,119.88347993302212,1054.882394868139,0.96875,0.016129032258064516,0.016129032258064516,0.21122622691351797,0.058872812828867895
108,478683.3333333333,0.14713286276745216,0.1600330004117801,167.56299896241492,1047.052786183221,0.984375,0.031746031746031744,0.0,0.05118969190791068,0.01290013764432793
108,546675.0,0.12300771394557415,0.1451672420583987,154.84088177265093,1066.6378969324269,0.9538461538461539,0.016129032258064516,0.0,-0.0076981140217598455,0.022159528112824553
108,615938.8888888889,0.07635728147872553,0.0768802312650309,82.81897822648976,1077.2467364332724,1.0,0.0,0.0,0.30477272407643696,0.0005229497863053628
108,684838.8888888889,0.14467533084332365,0.1445217802318123,152.98301151233153,1058.546409177547,0.96875,0.016129032258064516,0.0,-0.17737546446683297,0.00015355061151134386
108,752744.4444444444,0.07083058837441009,0.1208167145817037,125.9669944462844,1042.6288687158246,0.9538461538461539,0.031746031746031744,0.0,0.5716371178201302,0.04998612620729362
108,820530.5555555556,0.08527203262020733,0.11105704853441922,118.11025494007535,1063.5097591619335,0.9393939393939394,0.015873015873015872,0.0,0.06876041659654035,0.025785015914211895
108,889616.6666666666,0.11740580804594193,0.13091955866891095,138.51604842976025,1058.0241015023619,0.9242424242424242,0.015873015873015872,0.0,0.3246358682777369,0.013513750622969015
108,958830.5555555555,0.05274446244401073,0.040444074367775355,43.06288306498147,1064.7513569822902,0.9841269841269841,0.0,0.0,0.32454213333906873,0.012300388076235375
108,1027516.6666666666,0.07216235045276004,0.0904140603021463,87.44870542763391,967.2025029668754,0.8088235294117647,0.0,0.0,0.17839606963106883,0.01825170984938626
108,1089527.7777777778,0.1552202790134681,0.15302802624158726,149.60502367668406,977.6315316287275,0.9841269841269841,0.0,0.0,0.3178273618251587,0.0021922527718808427
108,1152105.5555555555,0.12453193321809436,0.14747159251894656,161.4564850940029,1094.8310948310916,0.9242424242424242,0.015873015873015872,0.0,0.2928518458584083,0.022939659300852205
108,1223400.0,0.10728142723286646,0.1491862214393326,144.52361435709815,968.7463960327561,0.8309859154929577,0.03333333333333333,0.03333333333333333,0.37162496733286704,0.041904794206466145
108,1286908.3333333333,0.043967822864981874,0.04217139014976697,38.86980722618517,921.7103607005462,0.96875,0.0,0.0,0.31924370078109865,0.0017964327152149018
108,1345933.3333333335,0.10385244340126368,0.07839787051484244,71.18877370805079,908.044736936741,0.9538461538461539,0.0,0.0,0.29877155962313445,0.025454572886421237
108,1405097.2222222222,0.13950211873686053,0.14091767549069947,137.8349323292985,978.1238006469641,0.9841269841269841,0.01639344262295082,0.0,-0.3308772372942181,0.001415556753838948
108,1467350.0,0.09481681907777015,0.09991684898844574,100.92289537011406,1010.0688361557984,0.984375,0.0,0.0,-0.45894173414875306,0.005100029910675596
108,1532052.7777777778,0.08654864245480108,0.08808189920519953,93.23877811720241,1058.546409177545,0.96875,0.0,0.0,0.2313287147318207,0.0015332567503984484
108,1599744.4444444445,0.10996343975518313,0.16632601442317319,163.20370063423937,981.227748408677,0.8656716417910447,0.016129032258064516,0.016129032258064516,0.060805013875049295,0.05636257466799005
108,1662627.7777777778,0.09730260869068086,0.18599436722747428,166.11920840701538,893.1410713306643,0.4479166666666667,0.016129032258064516,0.016129032258064516,-0.1040269440333086,0.08869175853679342
108,1721230.5555555555,0.06804440795758113,0.1302031091242702,109.38388288430065,840.1019270584469,0.5930232558139535,0.0,0.034482758620689655,-0.148045967661628,0.06215870116668906
109,308.33333333333337,0.054532918405258604,0.05481190000002808,35.293525712968055,643.902614449599,0.9384615384615385,0.0,0.0,0.3276974269289657,0.0002789815947694743
109,41550.0,0.05279175015514033,0.053739701259420236,37.42472452579109,696.4073794368325,0.96875,0.0,0.0,-0.1449652639809197,0.0009479511042799066
109,86102.77777777778,0.052973172721919114,0.05347372471041315,37.88907116659754,708.5549280845074,0.9841269841269841,0.0,0.0,-0.12460854432005314,0.0005005519884940385
109,131433.33333333334,0.03503744972485622,0.03519348697720149,24.53431672071962,697.1266227928215,0.96875,0.0,0.0,0.4504796355227171,0.00015603725234526744
109,176027.77777777778,0.0333867354762685,0.03227879326654408,22.647508060210566,701.6218937677565,1.0,0.0,0.0,0.5270208825911208,0.001107942209724419
109,220972.22222222222,0.05173140794037593,0.06239524132894676,43.1047069417437,690.8332434279137,0.96875,0.0,0.0,0.04598400219084592,0.010663833388570833
109,265205.55555555556,0.0354546618827822,0.036342407264938294,26.16143985308503,719.8598502946321,0.984375,0.0,0.0,0.36640765092669453,0.0008877453821560938
109,311272.22222222225,0.057164894208114554,0.0572632894225645,39.234620327356104,685.1618327028166,0.9841269841269841,0.0,0.0,0.7425912719709628,9.839521444994503e-05
109,355044.44444444444,0.037931445864549634,0.0390606414602914,27.370683599589267,700.7228395727701,0.96875,0.0,0.0,0.5143086172912638,0.001129195595741768
109,399880.5555555555,0.07144863593619223,0.07023121265458981,49.439924756845244,703.9594346747223,0.96875,0.0,0.0,-0.22307183893223845,0.0012174232816024172
109,444894.44444444444,0.035020777738514544,0.035270742773094665,25.171643483010172,713.6692199805806,0.96875,0.0,0.0,0.2511272169997156,0.0002499650345801213
109,490525.0,0.06362430303390072,0.06536473408815914,46.62529221558021,713.309598302587,0.96875,0.0,0.0,-0.11895176528709495,0.0017404310542584178
109,536161.1111111111,0.03535407735065264,0.0365715109938684,26.44932233227871,723.222027569854,0.984375,0.0,0.0,0.44837551746502396,0.0012174336432157554
109,582433.3333333333,0.06056455776444684,0.07397754061201242,53.35417617772171,721.2212752184695,0.96875,0.0,0.0,-0.29812204999295233,0.013412982847565584
109,628583.3333333334,0.042902017522623424,0.042102383276003214,30.37270502091645,721.4010860574668,0.984375,0.0,0.0,0.04854567517691557,0.0007996342466202108
109,674780.5555555556,0.04876481225695612,0.048847174936011185,35.4755528403908,726.2559787103974,1.0,0.0,0.0,-0.2898479372180033,8.236267905506467e-05
109,721216.6666666667,0.034673274166381066,0.0345051963212754,24.858724692228662,720.4342343330223,0.9841269841269841,0.0,0.0,0.4468253582188451,0.0001680778451056686
109,767288.8888888889,0.030056104238529946,0.030333160904646994,21.898737913503346,721.9405185744587,0.984375,0.0,0.0,0.36759891507862813,0.00027705666611704816
109,813544.4444444445,0.038834543260914255,0.051757551602532946,37.432201412035226,723.222027569854,0.984375,0.0,0.0,-0.0746211252841998,0.012923008341618691
109,859825.0,0.032073920750929574,0.03251362323436238,23.483348689109405,722.2618199097161,0.9841269841269841,0.0,0.0,0.4407161027214128,0.0004397024834328078
109,906022.2222222222,0.06235476681467469,0.06191128986300002,44.17304962354523,713.4894091415841,0.9841269841269841,0.0,0.0,-0.26008492569017816,0.00044347695167466783
109,951705.5555555555,0.03415117518307756,0.03470823047533124,25.077189402200982,722.5142007750729,0.984375,0.0,0.0,0.44265909156631006,0.0005570552922536803
109,997952.7777777778,0.039856504007012135,0.03965403262587215,28.656373776994904,722.6597619304459,0.96875,0.0,0.0,0.1550301487500421,0.00020247138113998336
109,1044205.5555555555,0.06326041102167401,0.05814611722962481,41.6991728364215,717.1445802949717,0.9841269841269841,0.0,0.0,-0.016610502227546148,0.005114293792049203
109,1090275.0,0.07154509181896715,0.07015643256938456,50.353823238205436,717.7363699102804,0.984375,0.0,0.0,-0.39048443713011743,0.0013886592495825911
109,1136225.0,0.04986689889708865,0.07496537744880193,53.797033372562474,717.6250584385238,0.953125,0.0,0.0,-0.3080372464556895,0.025098478551713273
109,1182150.0,0.03046224219456452,0.03186965064155383,22.885286458109913,718.0902833076718,0.984375,0.0,0.0,0.3049981677575683,0.001407408446989309
109,1228116.6666666665,0.033244231482474684,0.03317393019185632,23.794513528125126,717.2654367605292,0.96875,0.0,0.0,0.43577033471264714,7.030129061836449e-05
109,1274072.2222222222,0.04170312355464377,0.04320787764175205,30.92312240164859,715.6825118336147,0.9841269841269841,0.0,0.0,0.11912781762132799,0.001504754087108283
109,1319908.3333333333,0.030733711465634573,0.029885610559673332,21.29619783651324,712.5903549465921,1.0,0.0,0.0,0.3859573055707534,0.000848100905961241
109,1365605.5555555555,0.03245441464863288,0.03268046187861802,23.323039737518393,713.6692199805797,1.0,0.0,0.0,0.3893544294665705,0.0002260472299851421
109,1411291.6666666667,0.042724233668485184,0.03767698130657902,26.983748074963824,716.1865717265417,1.0,0.0,0.0,0.057515501545206724,0.005047252361906167
109,1457122.2222222222,0.04749534203502855,0.04798356466966624,32.546053578742296,678.2750261011126,0.984375,0.0,0.0,0.6706642444693273,0.0004882226346376861
109,1500536.111111111,0.043813554358345254,0.04470230047371007,32.81094518173215,733.9878447872865,0.96875,0.0,0.0,0.04610461223441913,0.0008887461153648177
109,1547480.5555555555,0.059250933273162255,0.12464627240907482,88.06814868020632,706.5445839501459,0.953125,0.0,0.01639344262295082,0.041944658888422574,0.06539533913591256
109,1591986.111111111,0.04958438420615412,0.059635838195257355,43.17077966471378,723.9066469287424,0.9841269841269841,0.0,0.0,-0.17597591821061095,0.010051453989103239
109,1638244.4444444445,0.05542078411659859,0.06228568498896438,46.086523848237675,739.9216024741988,0.96875,0.0,0.0,-0.26898847737409276,0.006864900872365784
109,1685555.5555555557,0.042751344050263256,0.05395120506613188,40.04577525676864,742.2591433811655,0.96875,0.0,0.0,-0.1371906398728542,0.011199861015868624
109,1733063.8888888888,0.04011027428294438,0.040313067461986006,29.9638586486645,743.2790540417076,0.9841269841269841,0.0,0.0,0.0907504774186788,0.00020279317904162847
111,547.2222222222223,0.03280969356517735,0.03228408121764377,27.872507570252242,863.3514264305427,1.0,0.0,0.0,0.17943216978445492,0.00052561234753358
111,55750.0,0.03281743140952816,0.03333647835832084,29.271399482222577,878.0591389287041,0.984375,0.0,0.0,0.3413335030982118,0.0005190469487926785
111,111938.88888888888,0.03452299595803669,0.03509067813727233,30.5388718999529,870.2844607472937,1.0,0.0,0.0,0.26376821478092655,0.0005676821792356401
111,167602.77777777778,0.03525398032585456,0.03421551222963355,28.596178489242682,835.7664879404012,0.984375,0.0,0.0,0.4140442220987379,0.001038468096221011
111,221108.3333333333,0.032397561159491335,0.03157256408221411,27.215965801800714,862.0131621534149,0.9538461538461539,0.0,0.0,0.3368921201017378,0.0008249970772772272
111,276200.0,0.03261969300449696,0.03210356552271804,27.685241170740433,862.37278383141,0.96875,0.0,0.0,0.24550649752979417,0.0005161274817789135
111,331305.55555555556,0.03301319500450713,0.0344404060809579,29.663312318442866,861.2939187974242,0.96875,0.0,0.0,0.21608421600480052,0.001427211076450767
111,386472.22222222225,0.032590317032273476,0.032959786789948736,28.577712788350567,867.0478656453413,0.96875,0.0,0.0,0.38366484426512765,0.0003694697576752601
111,441997.2222222222,0.03252369697689009,0.03318162762345511,28.60299975309159,862.0131621534134,0.96875,0.0,0.0,0.2186515258313599,0.0006579306465650248
111,497194.44444444444,0.04998647245025042,0.05559131325445998,47.8204845199656,860.2150537634415,0.96875,0.0,0.0,0.04593302145150804,0.00560484080420956
111,552166.6666666666,0.028395798082550914,0.02888287671115902,24.237851190523852,839.1771856007493,0.96875,0.0,0.0,0.2099534994508482,0.00048707862860810497
111,605819.4444444445,0.05708582053641835,0.058162448041606335,49.55113439442055,851.9437551695605,0.96875,0.0,0.0,-0.09321836321298815,0.0010766275051879853
111,660286.1111111111,0.03319724729657774,0.03244095821308641,28.069531219004595,865.2497572553693,0.96875,0.0,0.0,0.2481110142397783,0.0007562890834913322
111,715608.3333333334,0.039945993516424715,0.036103328277601154,31.115052403089493,861.8333513144152,0.96875,0.0,0.0,0.3899792070652691,0.00384266523882356
111,770836.1111111111,0.03810563032226558,0.03728066526039065,32.283900437667015,865.9690006113566,1.0,0.0,0.0,0.31042843949692456,0.0008249650618749257
111,826272.2222222222,0.03298539573111072,0.03259692517048423,27.635937386059798,847.808105872621,0.96875,0.0,0.0,0.20514843761938567,0.00038847056062649155
111,880519.4444444444,0.038604309599025874,0.03813848785293384,32.01866432649116,839.536807278742,0.9841269841269841,0.0,0.0,0.2999383728996781,0.0004658217460920336
111,934275.0,0.0352473588221169,0.03411498633931539,29.02724410357829,850.8648901355768,0.96875,0.0,0.0,0.38952996829572817,0.0011323724828015136
111,988763.8888888889,0.03453288111952376,0.035681118037200456,30.693434870710092,860.2150537634415,0.96875,0.0,0.0,0.3857397480396491,0.0011482369176766954
111,1043822.2222222224,0.03040468017128059,0.03110768995206858,27.04457167588226,869.385406552307,1.0,0.0,0.0,0.28143882243605706,0.0007030097807879908
111,1099466.6666666667,0.030698081476110493,0.031550584558067085,27.690582088669412,877.6567051461898,0.96875,0.0,0.0,0.2983044919069597,0.0008525030819565918
111,1155686.1111111112,0.03439183125133888,0.13293514791351424,119.92029718389239,902.0962406564656,0.9682539682539683,0.0,0.01639344262295082,0.05341368829138615,0.09854331666217536
111,1212405.5555555555,0.03406270818788356,0.03509161175472751,30.489606221038724,868.8573905965202,0.984375,0.0,0.0,0.3948776708565901,0.0010289035668439514
111,1268022.222222222,0.03471581923009294,0.03460824892172677,28.980223545956218,837.3790772107708,0.96875,0.0,0.0,0.3959075665150254,0.00010757030836616721
111,1321650.0,0.04321178582193874,0.042666380176276684,35.49777773144044,831.9847520408558,0.96875,0.0,0.0,0.5694475874804316,0.0005454056456620573
111,1374875.0,0.03870987552965605,0.03678208500226905,29.2595289045991,795.4831517243817,0.96875,0.0,0.0,0.3790186376631874,0.0019277905273870008
111,1425822.2222222222,0.035306681336676554,0.03615774915381513,29.84235158700764,825.3376464352973,0.9841269841269841,0.0,0.0,0.43937064082256366,0.000851067817138576
111,1478675.0,0.03483242566037172,0.03655624753669765,31.045268658219776,849.2465925846031,0.96875,0.0,0.0,0.29960272723559256,0.0017238218763259289
111,1533091.6666666667,0.03318245575395204,0.03260503384164707,27.19724385791355,834.1424821088195,0.96875,0.0,0.0,0.3062796386839999,0.0005774219123049693
111,1586555.5555555557,0.03722315395875627,0.036652445505472364,30.51188648453441,832.465230184405,0.9841269841269841,0.0,0.0,0.3885848636916449,0.0005707084532839066
111,1639733.3333333333,0.038595822252227255,0.03912729762076359,32.60786906275611,833.3790229727537,0.9841269841269841,0.0,0.0,0.4977743828374142,0.0005314753685363369
111,1693061.1111111112,0.04974637215845039,0.04956696993249516,40.71311516014646,821.3759125400102,0.96875,0.0,0.0,0.6778260980794512,0.00017940222595522887
111,1745602.777777778,0.050481954765566904,0.05015392572717361,39.38256439935391,785.2339339015344,0.96875,0.0,0.0,0.07642947508267159,0.000328029038393296
112,344.44444444444446,0.023984320647868693,0.025436315250569677,17.81995931358591,700.5715701367874,0.984375,0.0,0.0,-0.08693259534944263,0.0014519946027009845
112,45191.66666666667,0.017372031992601296,0.018292903080016142,12.763695005309346,697.7402629576542,0.984375,0.0,0.0,0.0012245783731064184,0.0009208710874148464
112,89844.44444444445,0.01883585216521261,0.019500810359556756,13.555963039890386,695.1487035638506,0.96875,0.0,0.0,0.10840371036970974,0.0006649581943441452
112,134341.66666666666,0.017427644479446152,0.01675482599611457,11.788692437658916,703.5998129967272,0.9841269841269841,0.0,0.0,0.20813659905883355,0.0006728184833315817
112,179397.22222222222,0.020848557593467352,0.021913083724404755,15.564955153821503,710.3041885650582,0.984375,0.0,0.0,0.080884836204007,0.001064526130937403
112,224852.77777777778,0.028466218645134017,0.02919826054499394,20.570141477916767,704.4988671917147,0.96875,0.0,0.0,0.5712703805027246,0.0007320418998599219
112,269938.8888888889,0.022117696272849707,0.023460260526799295,16.20290946226419,690.6534325889163,1.0,0.0,0.0,0.07646199007552376,0.001342564253949588
112,314180.55555555556,0.022819077244048896,0.02371380606271209,16.718126268132764,704.995487604184,0.984375,0.0,0.0,0.1908502472030322,0.0008947288186631937
112,359313.8888888889,0.014406112528890387,0.015644793666147436,10.858579413696019,694.0698385298658,0.96875,0.0,0.0,-0.20181968569100767,0.0012386811372570496
112,403738.8888888889,0.02216107168530024,0.022833170355282803,16.19107425087218,709.1032037575162,0.9841269841269841,0.0,0.0,0.15162660324502725,0.0006720986699825619
112,449086.1111111111,0.015020576592044472,0.017028899500399985,12.100947751569878,710.6124357176247,0.96875,0.0,0.0,-0.15577401980577923,0.002008322908355514
112,494577.7777777778,0.02026094800065502,0.022915264961421763,16.536329300964034,721.6294172815905,0.984375,0.0,0.0,0.14433473335073638,0.0026543169607667443
112,540755.5555555556,0.01705076089450522,0.018920802109260962,13.108056884103393,692.7854753941712,0.984375,0.0,0.0,-0.22690476190430994,0.0018700412147557403
112,585097.2222222221,0.01935030027668979,0.020702660925482508,14.383982777010154,694.7890818858549,0.96875,0.0,0.0,0.1092040004909831,0.0013523606487927178
112,629561.1111111111,0.01849963002082028,0.019586778579685382,13.682640123364225,698.5651095048017,1.0,0.0,0.0,-0.15115199284323969,0.001087148558865103
112,674244.4444444444,0.06256434704718927,0.06421510615024628,45.88607757778239,714.5682741755679,1.0,0.0,0.0,0.2845145984956768,0.001650759103057009
112,719955.5555555555,0.01945383495299155,0.02103404754858716,14.53089528549798,690.8273479905682,0.9841269841269841,0.0,0.0,0.018966617277690334,0.0015802125955956085
112,764158.3333333333,0.04263176083830937,0.04521097902382741,31.266031512356843,691.5583822212476,0.9841269841269841,0.0,0.0,-0.41552263352008867,0.0025792181855180396
112,808375.0,0.015932979045201395,0.017048536361009628,11.44355490265919,671.2338619771988,0.96875,0.0,0.0,0.00684421419081317,0.0011155573158082334
112,851350.0,0.02300175348354315,0.02363718247545408,16.36335320791495,692.2717301398928,0.96875,0.0,0.0,0.4056724785025344,0.0006354289919109288
112,895672.2222222222,0.014401936713970461,0.01556418109942775,11.04610759870559,709.7133815226374,1.0,0.0,0.0,-0.19852219316711858,0.0011622443854572891
112,941052.7777777778,0.01886520263733644,0.020549321127704995,14.498087688442915,705.5263577002703,0.96875,0.0,0.0,0.1831451926832773,0.0016841184903685531
112,986250.0,0.023323519209014314,0.024424003932341867,17.338434121783333,709.8931923616366,1.0,0.0,0.0,0.292254961423335,0.001100484723327553
112,1031694.4444444444,0.019901895895712517,0.02302640517801687,16.37941145830803,711.3316790736111,1.0,0.0,0.0,0.23709914494793466,0.003124509282304351
112,1077222.2222222222,0.021686013497504444,0.02153033617201746,15.319757524673433,711.5428854559275,1.0,0.0,0.0,0.09437084667647329,0.00015567732548698449
112,1122794.4444444445,0.014391350170769488,0.016466450741836343,11.920367297197307,723.9184378034307,1.0,0.0,0.0,-0.0745277670012131,0.002075100571066855
112,1169105.5555555555,0.014257848422213398,0.015680237693242692,11.4076027091847,727.5146545833766,1.0,0.0,0.0,-0.1010426849119949,0.001422389271029294
112,1215677.7777777778,0.016841044103307626,0.01669118383982703,12.128615777025846,726.6480252937849,0.9841269841269841,0.0,0.0,-0.04247082330735537,0.00014986026348059664
112,1262169.4444444445,0.01409020430120584,0.015222753953622624,10.995962138112484,722.3372440763734,0.984375,0.0,0.0,-0.12807435254703003,0.0011325496524167838
112,1308427.7777777778,0.01931446785449893,0.020147294795951846,14.774183722536245,733.308559395517,0.984375,0.0,0.0,0.20975056689162605,0.0008328269414529174
112,1355350.0,0.017307589401452467,0.01790668082219856,13.001614190678188,726.0761678713982,1.0,0.0,0.0,0.04023478653564137,0.0005990914207460937
112,1401825.0,0.014446163776084337,0.015294220278769482,11.198271114314675,732.1897363973136,1.0,0.0,0.0,0.04495502806469585,0.0008480565026851451
112,1448647.222222222,0.017841643255811744,0.020360773249073868,14.9667590516277,735.0781263824781,0.984375,0.0,0.0,-0.13540539321818057,0.0025191299932621238
112,1495705.5555555555,0.018021296730098037,0.018672042105485755,13.805775009486359,739.3821699572051,1.0,0.0,0.0,0.12612903225960667,0.0006507453753877186
112,1543025.0,0.014668257022668283,0.016522084238149392,11.990642123963513,725.7342325054361,0.9841269841269841,0.0,0.0,0.0778010949627053,0.0018538272154811093
112,1589444.4444444443,0.016421798950154005,0.01678866595584338,12.102305501667939,720.861653540475,0.96875,0.0,0.0,-0.17480657465112878,0.00036686700568937594
112,1635572.2222222222,0.01623906433449149,0.018044673337484517,13.09856263951974,725.8963570324028,1.0,0.0,0.0,-0.11373114778324521,0.0018056090029930257
112,1682013.888888889,0.016898542237867818,0.01905299223794346,13.768830834734963,722.6597619304516,1.0,0.0,0.0,0.1468275935360614,0.002154450000075643
112,1728288.8888888888,0.017620396058479117,0.017815949854532605,12.976314275319172,728.3537718320324,0.984375,0.0,0.0,-0.1798941798954883,0.0001955537960534881
113,472.22222222222223,0.08728400179890511,0.43118810240422145,285.05027813548963,661.0810375938121,0.6326530612244898,0.26804123711340205,0.0,-0.026551922455142717,0.34390410060531634
113,66761.11111111111,0.05649562138420979,0.41953399420125204,300.10400873989124,715.3270363972704,0.6847826086956522,0.27472527472527475,0.0,0.016659381068571386,0.36303837281704227
113,132891.6666666667,0.09033650455935852,0.4277910379964691,296.45532787398713,692.9909734958824,0.6595744680851063,0.3118279569892473,0.010752688172043012,0.0966777274513278,0.3374545334371106
113,198950.0,0.07342676988698495,0.4289835414634767,300.62427726777236,700.7827765191016,0.6702127659574468,0.1827956989247312,0.0,-0.018352092187546777,0.3555567715764918
113,266219.44444444444,0.06590609047810184,0.42828272779475196,281.79956971820394,657.9755648078625,0.6363636363636364,0.22448979591836735,0.0,-0.10213572316957986,0.36237663731665015
113,332408.3333333334,0.09040165677055591,0.42571698178333317,287.57846560684334,675.5156075808251,0.6428571428571429,0.25,0.0,-0.08773869065718833,0.3353153250127773
113,398480.55555555556,0.08922611984755927,0.43264314606724974,297.14135283989714,686.8047154818667,0.6631578947368421,0.30851063829787234,0.0,-0.08953394454617053,0.3434170262196905
113,465119.4444444445,0.08630532617465704,0.4231386006289009,273.84448277090155,647.1744302313543,0.6262626262626263,0.1958762886597938,0.0,-0.12154648899781761,0.3368332744542439
113,530011.111111111,0.06875731752517594,0.40852961902771345,278.20188689993785,680.9833949422048,0.65625,0.3157894736842105,0.0,-0.05654721677977277,0.3397723015025375
113,595797.2222222222,0.062071043731184244,0.42333832651339426,285.58049339586836,674.5916339489113,0.6595744680851063,0.22826086956521738,0.0,0.042726507405976465,0.36126728278221
113,661186.1111111111,0.1217157057955632,0.38730419846827085,276.33744372318074,713.4894091415824,0.7159090909090909,0.27586206896551724,0.011494252873563218,0.07289931869797793,0.2655884926727077
113,724366.6666666666,0.12231045132589564,0.35988343270598905,282.87692027889824,786.0237359411814,0.7875,0.21518987341772153,0.0,0.18974223333288984,0.23757298138009342
113,788686.1111111111,0.08491901332614601,0.4333400921542672,269.4462789107069,621.7894069556462,0.5961538461538461,0.049019607843137254,0.029411764705882353,-0.2194507071846975,0.34842107882812123
113,854558.3333333333,0.0788273454956113,0.41885512555379,267.8898389411474,639.5763656633219,0.6237623762376238,0.14,0.0,-0.15351000283215088,0.3400277800581787
113,919558.3333333333,0.09103910331053994,0.40529642536440325,288.91201201405875,712.8412537917084,0.7126436781609196,0.26744186046511625,0.0,0.19300458468263929,0.3142573220538633
113,982811.1111111111,0.1347274838520688,0.36635453427826087,289.82452325810783,791.1039611645002,0.7654320987654321,0.22784810126582278,0.0,0.03182894008837501,0.23162705042619205
113,1048061.1111111111,0.06793508942806525,0.4144603689966176,281.80130997528175,679.9234162183104,0.6595744680851063,0.22826086956521738,0.0,-0.0057386549757527045,0.34652527956855234
113,1113727.777777778,0.10315343419005235,0.39508824073023807,289.0421938216623,731.588956652894,0.7325581395348837,0.25882352941176473,0.0,0.33465933514978635,0.2919348065401857
113,1176966.6666666667,0.09506237374236703,0.35038795217393615,281.63847660803583,803.7904124860652,0.7777777777777778,0.2125,0.0,0.09769671077690333,0.2553255784315691
113,1242252.7777777778,0.1253958062190694,0.3108280635080193,263.1108531367051,846.4835837769099,0.8493150684931506,0.14084507042253522,0.0,0.3004168019658366,0.18543225728894988
113,1305305.5555555557,0.11371528071003292,0.29431344106348367,249.87089607459228,848.9958704288157,0.875,0.1267605633802817,0.0,0.21773359128671832,0.18059816035345075
113,1367491.6666666665,0.06389970158402229,0.32697122965477254,269.98516250200794,825.7153474544765,0.8051948051948052,0.17333333333333334,0.0,0.29974183704290897,0.26307152807075024
113,1431308.3333333335,0.12130130867895313,0.28019975840689704,235.21785739174302,839.464882943144,0.8611111111111112,0.11428571428571428,0.0,0.3944632724219278,0.15889844972794392
113,1492080.5555555555,0.09524017525332132,0.23753551725084726,211.69533116114476,891.2154847882634,0.9,0.08695652173913043,0.0,0.3082415419418633,0.14229534199752594
113,1554477.777777778,0.09917340041613883,0.2650135454939036,217.78466232657158,821.7869087434307,0.8873239436619719,0.11428571428571428,0.0,0.3489547246260198,0.1658401450777648
113,1614000.0,0.08176419513005567,0.33480908918385077,274.82042694778374,820.8272589543529,0.7974683544303798,0.19230769230769232,0.0,0.20185315110982763,0.2530448940537951
113,1678938.8888888888,0.10981732317481319,0.2775926801567449,233.90613238774452,842.6235600148664,0.863013698630137,0.125,0.0,0.39741516604175814,0.1677753569819317
113,1740675.0,0.1268191091010463,0.3717337059008532,288.64272704564536,776.4771460423624,0.7777777777777778,0.2125,0.0,0.14677004694270704,0.2449145967998069
114,861.1111111111112,0.03889449969805741,0.039054618742503204,42.9517183353077,1099.7858823945778,0.984375,0.0,0.0,0.34210619972951484,0.0001601190444457945
114,71241.66666666666,0.13349913316060988,0.16869660289346,179.35077952680146,1063.1558457645415,0.984375,0.047619047619047616,0.0,-0.16094529903515165,0.03519746973285012
114,140400.0,0.08494602141034284,0.09135567512678466,99.30772987627866,1087.0450000884787,0.984375,0.0,0.0,-0.4024541658114343,0.006409653716441824
114,209969.44444444444,0.17777608671695913,0.19451303378326656,207.10745240287997,1064.748456052804,0.984375,0.031746031746031744,0.0,-0.19955540041170394,0.016736947066307434
114,279236.11111111107,0.18081756577757724,0.1678267898323512,178.55373440729159,1063.916759568934,0.953125,0.03278688524590164,0.01639344262295082,-0.32563826496360476,0.012990775945226046
114,347319.44444444444,0.1440960848230781,0.15778918477871187,168.55927406234528,1068.2561944834033,1.0,0.0,0.0,-0.41117953952080544,0.01369309995563378
114,415369.4444444445,0.14041408131819796,0.1511611123707247,165.50728735365823,1094.9065189977523,0.9841269841269841,0.01639344262295082,0.0,-0.3880517015362066,0.010747031052526723
114,485683.3333333333,0.17888302822554228,0.19282157166193986,208.65033545907227,1082.090212524996,0.984375,0.015873015873015872,0.0,-0.5363386930797868,0.013938543436397582
114,555005.5555555556,0.14355206116649616,0.15352154127181084,153.4552896626742,999.5684539864061,1.0,0.016129032258064516,0.0,-0.2428534528207254,0.009969480105314676
114,618772.2222222222,0.05111523827313186,0.051152795022408645,48.698843980916735,952.0270389835609,0.984375,0.0,0.0,0.41190704061311095,3.755674927678754e-05
114,679777.7777777779,0.1629655041235937,0.170198770231284,167.65746871111722,985.0686258384042,0.9841269841269841,0.06557377049180328,0.0,0.4995953793834677,0.007233266107690289
114,743008.3333333334,0.102177679945657,0.11091705721847613,110.45036553312487,995.7924263674612,1.0,0.0,0.0,-0.2822266952194538,0.008739377272819121
114,806736.1111111111,0.10065209754066522,0.11211529463299987,112.51042171877084,1003.5242924443484,1.0,0.0,0.0,-0.38275467901249627,0.011463197092334648
114,870869.4444444444,0.04062027113065401,0.03948596423968738,38.54592366261429,976.1930449167492,1.0,0.0,0.0,0.26747267236181066,0.0011343068909666285
114,933419.4444444445,0.1159068794993375,0.12134756966460436,116.40761034283871,959.2908260509928,1.0,0.0,0.0,-0.5110915772682408,0.005440690165266854
114,994736.1111111111,0.04076684713217012,0.04153774023067429,39.1297552897656,942.0289855072455,1.0,0.0,0.0,0.21989354624089943,0.0007708930985041718
114,1055038.8888888888,0.04111582522113396,0.04098106769745679,38.782205792015546,946.3444456431841,1.0,0.0,0.0,0.09013108605005238,0.0001347575236771703
114,1115497.2222222222,0.03742447420916746,0.03829464767051512,35.71423635481451,932.6169197872686,0.9841269841269841,0.0,0.0,0.1981196552844377,0.0008701734613476564
114,1175138.888888889,0.035743478180872854,0.09571697031021183,88.05067590026273,919.9066332218499,0.9692307692307692,0.015625,0.0,0.4374658947234807,0.05997349212933897
114,1234969.4444444445,0.046831714956672994,0.04856454096814346,42.98102467817485,885.0289495450768,1.0,0.0,0.0,0.30917727475112805,0.0017328260114704633
114,1291605.5555555555,0.04209809965833677,0.04259702045840481,37.64811501669412,883.8203848895205,0.9841269841269841,0.0,0.0,0.3373805053929979,0.0004989208000680465
114,1348161.111111111,0.036741219983674585,0.03743335582142916,32.58495052314031,870.4790101796503,0.9841269841269841,0.0,0.0,0.11396923896470113,0.0006921358377545775
114,1403819.4444444443,0.04867064983992772,0.04980976936464641,43.82335410170362,879.8144352141535,1.0,0.0,0.0,0.2133193609648516,0.001139119524718686
114,1460133.3333333335,0.04260124617563398,0.04386176158732773,39.00821246645158,889.3444096810192,1.0,0.0,0.0,0.24129316494616218,0.0012605154116937453
114,1517011.1111111112,0.04194327722337053,0.0422362070864395,36.07400720332778,854.101485237528,1.0,0.0,0.0,0.30739165852042893,0.0002929298630689678
114,1571580.5555555555,0.07163593776396454,0.07196417288693478,60.40363200564823,839.3569964397466,1.0,0.0,0.0,-0.13947135683306056,0.00032823512297024127
114,1625238.8888888888,0.0454626929664393,0.045759223972376674,39.27226526057348,858.2371345344676,1.0,0.0,0.0,0.4623608947004011,0.0002965310059373713
114,1680155.5555555555,0.04837028934362678,0.04881470448880714,41.87745524972788,857.8860752773804,0.984375,0.0,0.0,0.2743823416588096,0.00044441514518036435
114,1735005.5555555555,0.06345235025646621,0.0628670454702609,52.20842745517416,830.457786979527,0.96875,0.0,0.0,0.1562937293586497,0.0005853047862053179
115,447.22222222222223,0.07047723917778376,0.07218432434356327,68.92978319263082,954.9134638229435,1.0,0.0,0.0,0.4531573076887064,0.0017070851657795122
115,61580.555555555555,0.06065718088543306,0.061382595614598114,58.530568659728445,953.5368792030783,1.0,0.0,0.0,0.18140639702895386,0.0007254147291650553
115,122652.77777777777,0.0686100398617981,0.06869420898603328,64.88486348826426,944.5463372532097,1.0,0.0,0.0,0.15755105812586723,8.416912423517275e-05
115,182952.77777777778,0.08139665597280128,0.11466005450390383,106.64352895410076,930.0844083452783,0.984375,0.015873015873015872,0.0,0.4882840883747353,0.03326339853110255
115,243483.3333333333,0.07180698345925735,0.07189867365694269,68.50632425434951,952.8176358470889,1.0,0.0,0.0,0.46895895670464244,9.16901976853457e-05
115,304594.44444444444,0.06363615534367094,0.06348731571444716,60.13757284719186,947.2376044008263,0.9841269841269841,0.0,0.0,0.159630189350626,0.00014883962922378202
115,365038.8888888889,0.07354582469066279,0.07345639025959491,69.67354598111322,948.5021757111516,1.0,0.0,0.0,0.2623634877518629,8.943443106787519e-05
115,425625.0,0.09441958146822937,0.09481631998299234,88.80825166170514,936.6346603373249,1.0,0.0,0.0,0.582039174299172,0.00039673851476296207
115,485525.0,0.060771262001460394,0.06145749754851699,58.1599614481686,946.3444456431832,1.0,0.0,0.0,0.2591123320744444,0.0006862355470565948
115,545986.1111111111,0.060005958703365565,0.06052865979319519,55.66481657469089,919.6439631222248,0.984375,0.0,0.0,0.18440518814292567,0.0005227010898296233
115,604761.111111111,0.06860343454712016,0.06984243062147945,63.47687327167371,908.8583072902383,0.9841269841269841,0.0,0.0,0.23600779647999579,0.0012389960743592887
115,662866.6666666666,0.07237049026557361,0.07302547186546506,66.71680352641047,913.6100297896459,0.9841269841269841,0.0,0.0,0.324800522269001,0.000654981599891441
115,721330.5555555555,0.07839429560354477,0.07841371624047042,72.51442849367773,924.7671449634983,1.0,0.0,0.0,0.44060704341959067,1.942063692564333e-05
115,780308.3333333333,0.06651108838653982,0.06712711826071192,61.55793561506648,917.0352788866111,1.0,0.0,0.0,0.3618519405415872,0.0006160298741720999
115,839036.1111111111,0.08477427631873198,0.08587337324979498,80.86432475800626,941.669363829251,1.0,0.0,0.0,0.4229436162718287,0.0010990969310629983
115,899344.4444444444,0.08419170035935605,0.0837699226860355,77.66348785723008,927.1046858704649,1.0,0.0,0.0,0.2869741702087771,0.00042177767332055027
115,958766.6666666666,0.07599464654945062,0.0759453675017179,68.9481354544131,907.8649260977437,1.0,0.0,0.0,0.4362906514921748,4.927904773271985e-05
115,1016897.2222222222,0.06020946313822422,0.06055698163916472,54.04060420206815,892.3926315230653,0.984375,0.0,0.0,0.508594900338366,0.00034751850094049547
115,1074105.5555555555,0.09203440936148716,0.0930631886047105,88.79925940844562,954.1824295922626,0.9841269841269841,0.0,0.0,0.5400916149823567,0.0010287792432233378
115,1135088.888888889,0.068575475393889,0.06718406476192663,59.53232480072913,886.1078145790642,1.0,0.0,0.0,0.38828243334113893,0.001391410631962367
115,1191961.1111111112,0.083578200594237,0.08402916277632462,75.81969899603249,902.3022066500326,0.984375,0.0,0.0,0.5001037595573639,0.00045096218208762195
115,1249913.8888888888,0.10156087843798448,0.10115672916098219,85.27038988504408,842.9532132196923,1.0,0.0,0.0,0.782485355136383,0.00040414927700228864
115,1303691.6666666665,0.09901885781743469,0.09814223396974796,88.4440586481033,901.1824478681207,1.0,0.0,0.0,0.7085161386004446,0.0008766238476867333
115,1361102.777777778,0.09625510619410967,0.09218855521509522,82.30232974483904,892.7608156219658,1.0,0.0,0.0,0.5863558363820317,0.004066550979014441
115,1418602.777777778,0.11136489088098421,0.11166601104729015,103.3648146004096,925.660490877882,0.984375,0.0,0.0,0.6835869765505056,0.0003011201663059432
115,1477894.4444444445,0.0998474639092838,0.10213993512961544,93.95074538212135,919.8238207504046,0.9841269841269841,0.0,0.0,0.6446134660130637,0.002292471220331646
115,1536788.8888888888,0.11368397580150637,0.11412796352995326,107.14246369437308,938.7923904052943,1.0,0.0,0.0,0.7207164508510717,0.00044398772844689294
115,1596747.2222222222,0.15716074466460928,0.15788057935173905,145.19346369463742,919.6410621927333,0.9841269841269841,0.0,0.0,0.8075025062364967,0.0007198346871297723
115,1655400.0,0.12215993956172991,0.16429846891229016,161.44224901306976,982.6156633221872,0.9692307692307692,0.03125,0.0,0.4174150753474109,0.042138529350560255
115,1719977.777777778,0.12311168115723216,0.12336848194694733,111.01968402996643,899.9031379644332,0.9841269841269841,0.0,0.0,0.8126663717678194,0.00025680078971516973
116,783.3333333333334,0.01641611215229499,0.016328637568568758,12.396070740190833,759.1613622469163,0.9841269841269841,0.0,0.0,0.07429840779268866,8.747458372623113e-05
116,49413.88888888889,0.04995871944601224,0.01779835666460202,13.691043588155399,769.2307692307692,1.0,0.0,0.0,-0.08695652173905338,0.03216036278141022
116,98655.55555555555,0.06714956161459303,0.06843224583857888,52.504835651673325,767.252850001798,1.0,0.0,0.0,-0.501078229719069,0.00128268422398585
116,147769.44444444444,0.08641187362434814,0.08860774303154792,66.73294656655659,753.1277096494488,0.984375,0.0,0.0,-0.5008391406310674,0.002195869407199777
116,195994.44444444444,0.06780843343547176,0.07057453992215579,52.65108895907945,746.0351710001081,1.0,0.0,0.0,-0.45310292241079014,0.0027661064866840307
116,243758.3333333333,0.11963953897722297,0.12026674047329225,91.30186253070089,759.1613622469163,0.96875,0.0,0.0,-0.6086876572731269,0.0006272014960692768
116,292327.7777777778,0.06925151513400364,0.0691947033670272,52.29611546080817,755.7820601298858,0.984375,0.0,0.0,-0.3967991732557216,5.681176697644452e-05
116,340680.55555555556,0.09699778937123203,0.09750130958589055,73.09435311170634,749.6756035601377,0.9841269841269841,0.0,0.0,-0.47474029493567754,0.0005035202146585205
116,388644.44444444444,0.1365347406690549,0.13138659508713244,97.66464992451641,743.3380084151473,1.0,0.0,0.0,-0.45136862498229036,0.005148145581922475
116,436444.44444444444,0.10405013474377368,0.09788766139216835,71.32666373715207,728.658369428148,0.9841269841269841,0.0,0.0,-0.4311102284489694,0.00616247335160533
116,483344.44444444444,0.13960749937246114,0.13548725283922475,100.2012210824127,739.5619807962005,1.0,0.0,0.0,-0.43237176472030164,0.0041202465332363936
116,530941.6666666667,0.12573780273422153,0.13084233926073022,97.61298694443283,746.0351710001066,1.0,0.0,0.0,-0.46771812706980065,0.005104536526508691
116,578750.0,0.20417217248081543,0.20533687065414152,155.4079375321198,756.8438003220602,1.0,0.015873015873015872,0.0,-0.3957809461157331,0.0011646981733260953
116,627247.2222222222,0.13717373262879431,0.13760055463462906,105.62390184759795,767.6124716797926,0.96875,0.0,0.0,-0.48300938885816413,0.0004268220058347427
116,676380.5555555556,0.12698439945748796,0.12753537020298913,97.74303911612714,766.3994620516361,0.984375,0.0,0.0,-0.47606048043351307,0.0005509707455011725
116,725433.3333333333,0.11730057722546221,0.11821269975447309,92.80336734060309,785.054123062539,1.0,0.0,0.0,-0.48066583953692266,0.0009121225290108781
116,775669.4444444445,0.09575356983822239,0.09703626369775573,75.11438041119837,774.0856618836988,1.0,0.0,0.0,-0.47669245726122705,0.0012826938595333348
116,825227.7777777778,0.10118899944495195,0.10291993574852079,79.66884658492147,774.0856618836988,1.0,0.0,0.0,-0.4792397321417878,0.001730936303568839
116,874705.5555555555,0.01501430111136621,0.016552366510482548,12.774940836260722,771.7893890381416,0.9841269841269841,0.0,0.0,-0.06974887947382802,0.0015380653991163371
116,924125.0,0.08668177243278428,0.08981055433713751,68.5598050818253,763.3824953853466,0.9841269841269841,0.0,0.0,-0.44402469900180497,0.0031287819043532283
116,973022.2222222222,0.08832043178966006,0.1997989379665915,152.39216654642493,762.7276105536982,0.9523809523809523,0.0,0.016666666666666666,-0.30413910830594443,0.11147850617693145
116,1021080.5555555555,0.10643182628804598,0.10650964786194456,79.95788467357497,750.7102528140418,1.0,0.0,0.0,-0.47119806785543733,7.782157389857325e-05
116,1069152.7777777778,0.1226486893712219,0.11848826183111077,89.3691277988554,754.2445675018778,0.9841269841269841,0.0,0.0,-0.38908780328474485,0.004160427540111131
116,1117155.5555555555,0.12485451031308109,0.12719659061159277,95.80798325456927,753.227604560002,1.0,0.0,0.0,-0.4751159332840422,0.002342080298511684
116,1165369.4444444445,0.12668028142952134,0.12750965813989285,95.65402484259936,750.1708202970462,1.0,0.0,0.0,-0.4901778046981945,0.0008293767103715044
116,1213394.4444444445,0.06116487410012023,0.06103608527148919,45.10390757440822,738.9711737537808,0.984375,0.0,0.0,-0.4551761583010651,0.00012878882863104346
116,1260688.8888888888,0.1341443637712006,0.1345073176608304,98.5816209561526,732.9089797533027,1.0,0.0,0.0,-0.4902686521316694,0.00036295388962981345
116,1307600.0,0.11984368028368789,0.11929563266454561,88.67697799748856,743.3380084151493,1.0,0.0,0.0,-0.4829348729286643,0.0005480476191422751
116,1355152.7777777778,0.09779910421272825,0.10083648693290724,74.88232733806795,742.6114258412414,0.8627450980392157,0.0,0.02,0.009356796097709112,0.003037382720178991
116,1402550.0,0.09357819589964253,0.13638301403428016,102.96584808662968,754.9756017325515,1.0,0.0,0.0,-0.012054993385062853,0.04280481813463763
116,1450055.5555555557,0.07891588097095217,0.0805889285220321,58.38328352847629,724.4578703204245,1.0,0.0,0.0,-0.4738010713815681,0.0016730475510799286
116,1496405.5555555555,0.10364025316555843,0.10490092505184699,77.50528662531708,738.8427374402114,1.0,0.0,0.0,-0.47882438601516963,0.0012606718862885613
116,1543669.4444444445,0.11235570206339467,0.11311568887823394,82.29865625386044,727.5618180821299,0.9841269841269841,0.0,0.0,-0.25681695756203876,0.0007599868148392697
116,1590261.1111111112,0.08913953640615452,0.08872633306351715,64.42207590003987,726.0761678713982,1.0,0.0,0.0,-0.4948772072507477,0.0004132033426373638
116,1636700.0,0.017263157457575746,0.01791702093634903,12.74872877582405,711.5428854559275,0.984375,0.0,0.0,0.035450149779567404,0.0006538634787732825
116,1682238.8888888888,0.01705862868898587,0.017562870280322322,12.597239822383909,717.2654367605292,1.0,0.0,0.0,-0.0070641754442365085,0.000504241591336451
116,1728130.5555555555,0.06294303321038484,0.06192690054128069,44.80775484196645,723.5588161254324,1.0,0.0,0.0,-0.46527727912037103,0.001016132669104157
117,525.0,0.02876662585118884,0.027373682393802255,32.95335772044918,1203.833567087424,1.0,0.0,0.0,0.3566949272497272,0.0013929434573865841
117,77488.88888888889,0.022935292098514186,0.02161348810323092,25.937429352494537,1200.0575394684788,0.96875,0.0,0.0,0.0971176997063359,0.0013218039952832654
117,154330.55555555556,0.029306611386445997,0.02893612578830544,34.36080388139121,1187.4707807386628,0.96875,0.0,0.0,0.43602437850616993,0.0003704855981405582
117,230352.77777777778,0.020828640312767776,0.020094437749795666,23.969953614583467,1192.8651059085846,0.96875,0.0,0.0,0.14539007092199918,0.0007342025629721097
117,306675.0,0.018353087599170884,0.01771483569187305,20.73324442018227,1170.3887510339123,0.96875,0.0,0.0,0.10373701329978276,0.0006382519072978335
117,381552.7777777778,0.022554319290444512,0.02126275806020814,25.3712486941312,1193.2247275865793,0.96875,0.0,0.0,0.06636386991381954,0.0012915612302363717
117,457880.5555555555,0.02533652963189754,0.02389268733278704,28.251575484663494,1182.4360772467362,0.96875,0.0,0.0,0.4998246844317105,0.001443842299110501
117,533469.4444444444,0.020042182502077843,0.020030788363749098,23.77517063852772,1186.9313482216733,0.984375,0.0,0.0,0.26198683122399036,1.1394138328745668e-05
117,609427.7777777778,0.029305437364263692,0.028460036464582766,33.442359531061996,1175.0638328478428,0.96875,0.0,0.0,0.4568483341126574,0.0008454008996809266
117,684672.2222222222,0.1097574220867465,0.1095638075878944,119.99733017187498,1095.2278203330109,0.96875,0.0,0.0,0.8430597018276582,0.00019361449885210713
117,754858.3333333334,0.04743927766337688,0.04465416017428225,52.72842627117478,1180.8177796957598,0.96875,0.0,0.0,0.6796713760911848,0.0027851174890946365
117,830272.2222222222,0.019390739918762417,0.020837103434129135,24.46993967855171,1174.3445894918555,0.96875,0.0,0.0,0.12062384593449024,0.0014463635153667172
117,905447.2222222222,0.01863031142449568,0.020166488139560623,23.744050839328747,1177.4013737548094,0.96875,0.0,0.0,-0.12807707639250196,0.001536176715064945
117,980780.5555555556,0.05294214210434743,0.05298424843768453,62.02169549561739,1170.5685618729105,0.96875,0.0,0.0,0.8050847457627215,4.2106333337101065e-05
117,1055661.111111111,0.024971577159889537,0.025404762500503948,30.4871767771359,1200.0575394684809,0.96875,0.0,0.0,0.40659714143674064,0.0004331853406144108
117,1132450.0,0.02028355377600308,0.021702107126430593,25.680865789017115,1183.3351314417237,0.96875,0.0,0.0,-0.19165411588228004,0.0014185533504275129
117,1208200.0,0.020286860011809404,0.020879587816199086,24.778882940790815,1186.751537382674,0.96875,0.0,0.0,-0.06104930214750726,0.0005927278043896811
117,1284138.888888889,0.02011288319654301,0.01908928589740221,22.45515667652121,1176.3225087208239,0.96875,0.0,0.0,-0.07198358505324803,0.0010235972991408
117,1359388.888888889,0.01875483152870312,0.018446124155609842,21.632254781689387,1172.726291940878,0.96875,0.0,0.0,-0.27937658571961144,0.00030870737309327684
117,1434422.2222222222,0.01752095389185035,0.016858363596606314,19.645962252239727,1165.3540475419911,0.96875,0.0,0.0,-0.2916615169100505,0.0006625902952440352
117,1509022.222222222,0.01823837872480965,0.018323831854407124,21.4031739717029,1168.0512101269446,0.96875,0.0,0.0,-0.20453093904651298,8.545312959747434e-05
117,1583772.222222222,0.02563739026831296,0.026202170360247575,30.56307388911536,1166.432912575971,0.96875,0.0,0.0,0.4650648282143527,0.0005647800919346135
117,1658386.1111111112,0.01865271024627393,0.01963606279610058,22.939457688039965,1168.2310209659438,0.9841269841269841,0.0,0.0,-0.28562579194865323,0.0009833525498266493
118,188.88888888888889,0.03678999209329882,0.049040949469044234,40.600818958417015,827.8962662426668,0.9841269841269841,0.0,0.0,-0.17745131677060963,0.012250957375745414
118,53213.88888888889,0.04850166338504288,0.05001202071721834,40.895674777347054,817.7169046734264,0.984375,0.0,0.0,-0.0908580826392428,0.0015103573321754576
118,105363.88888888889,0.05603520909345506,0.055250676605099705,45.26724477231244,819.306614032202,0.9841269841269841,0.0,0.0,-0.17678234950220614,0.0007845324883553537
118,157952.77777777778,0.1525327203599662,0.1537221121889348,130.13336645188346,846.54942999964,1.0,0.0,0.016129032258064516,0.013474412287894822,0.0011893918289686
118,212100.0,0.03708654647696454,0.04648675940531858,38.76822205233708,833.9626712698237,1.0,0.0,0.0,-0.003461662161942849,0.009400212928354038
118,265500.0,0.12553229027682464,0.126997706275486,104.19867906193451,820.4768583450209,1.0,0.0,0.016129032258064516,0.09138183725092877,0.0014654159986613735
118,318025.0,0.09371170853783578,0.09460748034669958,76.6706070274706,810.407451361168,1.0,0.0,0.0,-0.4455130650021959,0.0008957718088637989
118,369783.3333333334,0.042804801977472565,0.04326045577356576,31.192582380695253,721.0414643794722,1.0,0.0,0.0,0.5083608614932114,0.0004556537960931986
118,415850.0,0.054526567762248505,0.05308304535039179,36.37564027589155,685.2591074189958,1.0,0.0,0.0,-0.12838853883362167,0.001443522411856718
118,459772.22222222225,0.09298561568704028,0.09408986807864483,67.96461600343794,722.3372440763744,0.984375,0.0,0.0,-0.23586974443894151,0.0011042523916045544
118,506005.5555555555,0.07053439046205702,0.07364667659729134,52.16818786058588,708.3576648794032,0.984375,0.0,0.0,-0.1484631390162754,0.0031122861352343156
118,551394.4444444444,0.09263215689789855,0.09552329190988443,73.14775903328312,765.7583566350485,0.9841269841269841,0.0,0.0,-0.4439030642820308,0.0028911350119858736
118,600394.4444444444,0.058443366554085094,0.05923981039619976,44.95127123960917,758.8017405689199,1.0,0.0,0.0,-0.2935574106252735,0.0007964438421146636
118,648958.3333333334,0.08628193796627341,0.08659557423496139,71.17423127773736,821.9153450570002,0.96875,0.0,0.0,0.09082105901058131,0.00031363626868798067
118,701563.8888888889,0.1279939631370941,0.13088870070541495,105.56350607909728,806.5135149953402,0.9841269841269841,0.0,0.0,-0.16426817375413494,0.002894737568320843
118,753116.6666666666,0.08606049920225402,0.08786512443988596,66.51421834284884,757.003632178947,1.0,0.0,0.0,-0.10273182878131283,0.001804625237631946
118,801666.6666666666,0.1479764705609594,0.14824280224843472,120.90585471200909,815.5934242890752,0.984375,0.0,0.015873015873015872,0.04310941291120412,0.0002663316874753352
118,853872.2222222222,0.11788508813054996,0.12046134311023533,96.34481500239646,799.7986118603243,1.0,0.0,0.0,0.023117533447374033,0.0025762549796853745
118,905058.3333333333,0.1108457838175866,0.11259229778306508,90.35484320599458,802.4957744452817,1.0,0.0,0.0,-0.10356118603025874,0.00174651396547848
118,956352.7777777778,0.0955391249270274,0.09365493687465401,72.85058742758181,777.8616895026437,1.0,0.0,0.0,-0.40019294916618064,0.0018841880523733923
118,1006063.8888888889,0.1557831837621874,0.15760158778194053,131.26381030063456,832.8838062358404,1.0,0.0,0.03225806451612903,0.03504877592599713,0.0018184040197531393
118,1059327.7777777778,0.04242618418476785,0.04210738723311482,33.972713078538725,806.8112345812166,1.0,0.0,0.0,0.08457810831051273,0.00031879695165303035
118,1111044.4444444445,0.10782712246716106,0.10825148381515438,91.18172797510805,842.3138857921438,0.984375,0.0,0.015873015873015872,0.055540672477311946,0.0004243613479933267
118,1164947.2222222222,0.05393687962425311,0.054759020789150285,43.727264955697564,798.5399359873413,1.0,0.0,0.0,-0.04783934447060032,0.0008221411648971777
118,1216130.5555555555,0.05000847096435397,0.04963644155290446,40.8505040075599,822.9942100909839,1.0,0.0,0.0,0.19084004622065856,0.0003720294114495093
118,1268900.0,0.022556788219967455,0.023150125935834317,19.360389158350227,836.2973580364884,0.984375,0.0,0.0,0.2301344759766018,0.0005933377158668617
118,1322447.2222222222,0.13548350695269876,0.13735047394175798,117.6570032471204,856.6188369834938,1.0,0.0,0.016129032258064516,-0.12936582592659734,0.001866966989059221
118,1377291.6666666667,0.1434769222715727,0.1468510440657658,125.36162926169037,853.6652228740601,0.9841269841269841,0.0,0.0,-0.3711675445810706,0.003374121794193108
118,1432102.777777778,0.0686492539765564,0.07089742300486958,60.54084616285928,853.9216743985327,1.0,0.0,0.0,-0.43528893372496585,0.0022481690283131794
118,1486741.6666666665,0.041111269264634334,0.042808228928278756,36.40092685327986,850.3254576185868,1.0,0.0,0.0,-0.12191317899662626,0.001696959663644422
118,1541111.111111111,0.09959331734545233,0.10753819093493058,90.16625028402541,838.4579422447545,1.0,0.0,0.0,-0.38262277152269825,0.007944873589478249
118,1594788.8888888888,0.1033509754974927,0.10263043100522806,79.51856136971406,774.804905239688,0.984375,0.0,0.0,0.7600289995169183,0.0007205444922646354
118,1644194.4444444443,0.0391148338999449,0.0405892652335321,27.777671715543423,684.3600532240084,1.0,0.0,0.0,-0.19979941748591107,0.0014744313335872047
118,1688036.111111111,0.1006744073436753,0.10103044665772891,71.33933254664309,706.1171647426897,1.0,0.0,0.0,-0.24777142554784712,0.000356039314053605
118,1733183.3333333335,0.11620672187622919,0.11801167365718847,83.16031018493887,704.6786780307077,1.0,0.0,0.0,-0.12752845544668154,0.0018049517809592824
119,858.3333333333333,0.31704843366428254,0.31630406690353685,287.9576169188706,910.3822778437084,0.9841269841269841,0.0,0.0,-0.7074699974133658,0.000744366760745685
119,59155.55555555556,0.2029898237992834,0.19354848519331658,178.952477948724,924.5873341245009,1.0,0.0,0.0,-0.665129048809147,0.009441338605966826
119,118319.44444444444,0.2724984583335094,0.2675331340354426,240.75390682795464,899.9031379644352,0.9841269841269841,0.0,0.0,-0.549941905648024,0.004965324298066787
119,176441.66666666666,0.32622507796831096,0.32569916270314914,303.30419743942343,931.2403351674039,1.0,0.0,0.0,-0.7382441541765514,0.0005259152651618249
119,235941.66666666666,0.3184811315488417,0.312816828419988,286.5265803523245,915.9564138526264,1.0,0.0,0.0,-0.6024979117011444,0.005664303128853743
119,294536.1111111111,0.3264333215389603,0.3217038673015318,289.19248392202945,898.9400293748116,0.984375,0.0,0.0,-0.6230412581448452,0.004729454237428543
119,352052.7777777778,0.25067332709574436,0.2508460214748195,225.07311956689873,897.2560865969009,0.96875,0.0,0.0,-0.570444359475915,0.0001726943790751334
119,409450.0,0.26122631799275964,0.2537667170769434,229.38204170636806,903.9090876398034,1.0,0.0,0.0,-0.5542286849720167,0.007459600915816211
119,467341.6666666666,0.15442924745672673,0.1553224825547362,140.39740349600075,903.9090876398025,1.0,0.0,0.0,-0.5578183690673076,0.0008932350980094816
119,525177.7777777778,0.24577483016547969,0.23813887956793883,216.71177572074257,910.0226561657131,1.0,0.0,0.0,-0.45730268734178947,0.007635950597540853
119,583452.7777777778,0.28643821886239085,0.28439113099939606,258.90464563777897,910.3822778437095,1.0,0.0,0.0,-0.5408436605592961,0.0020470878629947897
119,641741.6666666666,0.2351902328036282,0.2366368874411685,214.4639371348494,906.2996874828671,0.9841269841269841,0.0,0.0,-0.4763720787630085,0.0014466546375403178
119,699666.6666666666,0.27278121872756156,0.27399190820531544,250.52205288140692,914.3410640203234,0.9841269841269841,0.0,0.0,-0.5814067324627218,0.001210689477753879
119,757755.5555555556,0.2863284666034596,0.2863511986821026,263.10904183578646,918.833387276584,1.0,0.0,0.0,-0.6152108646364307,2.2732078643006304e-05
119,816541.6666666666,0.26336458103630167,0.26384207916796526,240.71901134575037,912.3601970726797,1.0,0.0,0.0,-0.6055346173451979,0.00047749813166358956
119,874919.4444444445,0.2317605841309816,0.23161077628661494,211.18751511299718,911.820764555686,0.96875,0.0,0.0,-0.5175326248189921,0.00014980784436666172
119,933241.6666666666,0.29073153849768846,0.28819870972277,262.6432650408353,911.3269982835193,0.984375,0.0,0.0,-0.6074964129704123,0.0025328287749184497
119,991561.1111111111,0.20778730788089828,0.20902579071601435,189.9748263301608,908.8583072902402,0.9841269841269841,0.0,0.0,-0.6712627462187768,0.0012384828351160726
119,1049705.5555555555,0.2843512360988627,0.28241569954495727,261.77088252136537,926.899187768754,0.984375,0.0,0.0,-0.7118684037392539,0.001935536553905437
119,1109425.0,0.32399638479849135,0.3258510268407636,277.4895643395275,851.5841334915623,1.0,0.0,0.0,-0.6847980965446757,0.0018546420422722587
119,1163822.2222222222,0.3048585168755717,0.304454055779301,254.0128059150495,834.3222929478187,1.0,0.0,0.0,-0.6122792715352444,0.0004044610962706807
119,1217036.111111111,0.3595833445636119,0.35457128268015736,327.43913068750624,923.4789919037921,0.9841269841269841,0.0,0.0,-0.6803648210271812,0.005012061883454544
119,1275983.3333333333,0.37166937815270357,0.36547461897599265,342.513344500103,937.1740928543169,1.0,0.0,0.0,-0.7896875295703458,0.006194759176710918
119,1335991.6666666665,0.3214878051325622,0.3208854697317736,288.4567935866308,898.9400293748116,0.96875,0.0,0.0,-0.8233127409905617,0.0006023354007885784
119,1393150.0,0.35101581024263057,0.3485831837583511,327.049254178262,938.2244164852854,0.984375,0.0,0.0,-0.6756758986255589,0.002432626484279443
119,1453150.0,0.3198523409614312,0.3170752931137322,290.24977283667465,915.3970023535214,0.984375,0.0,0.0,-0.7777369449526393,0.002777047847698999
119,1511811.1111111112,0.31376034824360605,0.3070069227860526,265.58246224398584,865.0699464163721,1.0,0.0,0.0,-0.562943197964728,0.006753425457553419
119,1567363.8888888888,0.32821363821475946,0.32773394253416416,292.40936070097166,892.2156748243733,0.984375,0.0,0.0,-0.6033865251060901,0.00047969568059530454
119,1624505.5555555555,0.27884003859102935,0.2821206154237523,263.7807388029163,934.9927810369724,0.9841269841269841,0.0,0.0,-0.5817199251459215,0.0032805768327229257
119,1683919.4444444445,0.22404279816322847,0.22261730444539496,209.95212748877972,943.107850541233,1.0,0.0,0.0,-0.5761683662874965,0.0014254937178335148
119,1744241.6666666665,0.1788798670780023,0.17815248399983072,163.86838170110613,919.8209198209206,0.984375,0.0,0.0,-0.5225554357083706,0.0007273830781715784
121,452.77777777777777,0.024308147915358545,0.025027627127206246,25.066329179440213,1001.5463732153775,0.9841269841269841,0.0,0.0,0.5205223376974167,0.0007194792118477011
121,64555.555555555555,0.023479487026195834,0.024778712844648148,24.950694416878775,1006.9406983852986,0.984375,0.0,0.0,0.5677548768526827,0.001299225818452314
121,128958.33333333334,0.024351672552229794,0.025220245917482093,24.148201803609183,957.4927176610204,1.0,0.0,0.0,0.6777238476991769,0.0008685733652522981
121,190216.66666666666,0.028698271866527014,0.028472578983912113,27.88688778461704,979.4296400187,1.0,0.0,0.0,0.6893172849518061,0.00022569288261490086
121,252963.8888888889,0.022339107879639705,0.022937989735647084,23.076572908070897,1006.0416441903122,0.9538461538461539,0.0,0.0,0.6277303898637538,0.0005988818560073786
121,317394.44444444444,0.023279242393697372,0.023412075453991512,23.601624395383,1008.096204104757,0.9841269841269841,0.0,0.0,0.5785733987309187,0.00013283306029414008
121,381869.4444444445,0.0448974923238105,0.045548585232312824,42.170975898367104,925.846009997483,0.984375,0.0,0.0,0.8434845767265245,0.0006510929085023209
121,441202.7777777778,0.02691391998315846,0.026983187089028603,26.14187291611573,968.8208005178547,1.0,0.0,0.0,0.5364213961744687,6.926710587014384e-05
121,503286.1111111111,0.021839856362431978,0.022368531786230474,22.202016661270907,992.5558312655072,1.0,0.0,0.0,0.5291956989252508,0.0005286754237984956
121,566872.2222222222,0.021923855158688096,0.02326828065394486,24.04350728610923,1033.3168850631403,0.9841269841269841,0.0,0.0,0.4800917508935085,0.0013444254952567625
121,632958.3333333334,0.019484602471424032,0.020345583778661,20.711095573065307,1017.9651662189052,1.0,0.0,0.0,0.25404385427590104,0.0008609813072369688
121,698130.5555555556,0.021702142357030253,0.022499160329085274,22.88280191373051,1017.0513734305583,1.0,0.0,0.0,0.40154259956210153,0.0007970179720550204
121,763241.6666666666,0.02226523228889937,0.022566863057598235,22.435391420408656,994.1741288164856,1.0,0.0,0.0,0.4750961929293728,0.0003016307686988656
121,826913.8888888889,0.0223097285825856,0.022609494549833197,22.815205418359408,1009.0984284532681,0.96875,0.0,0.0,0.6547653958944097,0.00029976596724759844
121,891500.0,0.019016194186085203,0.020438232414554603,20.24256991103717,990.426642600556,0.9538461538461539,0.0,0.0,0.2727452009944992,0.0014220382284694001
121,954908.3333333333,0.10165326941241122,0.10814395986610786,110.44254029493763,1021.2548202569577,0.9841269841269841,0.0,0.0,-0.43460627341423885,0.006490690453696643
121,1020263.8888888889,0.02130021519586999,0.02208049156469197,22.158309674280954,1003.5242924443503,1.0,0.0,0.0,0.4441458986000656,0.0007802763688219798
121,1084500.0,0.01708616695012813,0.018097119087854774,18.333363710751588,1013.0542669112103,1.0,0.0,0.0,0.4005639168882061,0.001010952137726645
121,1149394.4444444445,0.013434735920205516,0.013999697889412358,14.5701174855106,1040.7451361168041,1.0,0.0,0.0,0.301577948668204,0.0005649619692068425
121,1216002.7777777778,0.025464707506851113,0.026076054248999992,26.70314203234115,1024.048415352764,0.984375,0.0,0.0,0.6714285714286146,0.0006113467421488793
121,1281563.8888888888,0.02949695213935888,0.02991660715468015,30.78590692024208,1029.0574315819747,1.0,0.0,0.0,0.7175263485787875,0.00041965501532127
121,1347494.4444444445,0.020430354078366207,0.021099412420560116,21.96151967895355,1040.8593017288654,0.984375,0.0,0.0,0.43835619307320633,0.0006690583421939088
121,1414130.5555555555,0.03572133104399652,0.032323937443955564,33.199253907266844,1027.0795123530027,0.984375,0.0,0.0,0.6621039875347136,0.003397393600040953
121,1479630.5555555555,0.037691102531051186,0.03808054408807917,36.06502662479862,947.0722514200763,1.0,0.0,0.0,0.7634634067919677,0.00038944155702798355
121,1540155.5555555555,0.04485283621234308,0.045078110036809914,35.194223357397135,780.7386629266003,0.96875,0.0,0.0,0.8146008565173669,0.00022527382446683314
121,1590183.3333333335,0.029114329623354685,0.02942210367599645,22.434542786336948,762.5064146803278,0.96875,0.0,0.0,0.6448400154931642,0.0003077740526417662
121,1639030.5555555555,0.035110836246419204,0.12549419093760592,106.87773996550338,851.6548787396989,0.96875,0.0,0.01639344262295082,-0.07347302110353626,0.09038335469118672
121,1692666.6666666667,0.021424402197696982,0.023074972409129167,19.618175639612776,850.1928102783439,0.9841269841269841,0.0,0.0,0.38775395082872127,0.0016505702114321848
121,1747119.4444444445,0.02770568871640532,0.028093142258030085,23.34275728671873,830.9058870068721,0.9841269841269841,0.0,0.0,0.6180227660508538,0.0003874535416247653
122,258.33333333333337,0.03192071467774265,0.03149627200092197,21.498156671971053,682.5619448340346,0.96875,0.0,0.0,0.4707649822011886,0.00042444267682067993
122,43916.666666666664,0.024718652593216973,0.02437179389459194,17.020902558095994,698.3852986658032,0.9841269841269841,0.0,0.0,0.293805983256241,0.0003468586986250313
122,88622.22222222222,0.03449503694681302,0.035858717753764854,25.288217180973465,705.2181105477042,0.9841269841269841,0.0,0.0,0.6101680867288714,0.0013636808069518377
122,133769.44444444444,0.036935471342872866,0.03728433970610918,26.347224627793185,706.6565972596826,0.9841269841269841,0.0,0.0,0.685983226539448,0.00034886836323631126
122,179038.8888888889,0.08429238188819227,0.08513756351920902,62.842035862616086,738.1234940842236,0.984375,0.0,0.0,0.9266080916141898,0.0008451816310167531
122,226216.66666666666,0.026148845627574576,0.025917302179227907,18.65223902654703,719.6828935959372,0.984375,0.0,0.0,0.6582728695405228,0.00023154344834666954
122,272294.44444444444,0.043300309613270284,0.04406068445357846,32.807439551600005,744.5966842881284,1.0,0.0,0.0,0.6804956551629401,0.0007603748403081784
122,319847.22222222225,0.03859070275461482,0.03975587980697446,28.2055531938291,709.4687208728541,0.9841269841269841,0.0,0.0,0.7307523294250358,0.0011651770523596408
122,365261.1111111111,0.040884698941757766,0.040813810642711106,26.700758780786565,654.2089150784803,0.9538461538461539,0.0,0.0,0.6361086670377252,7.088829904666055e-05
122,407152.77777777775,0.04731662040192689,0.04831746685520951,34.17860873312368,707.3758406156717,0.9841269841269841,0.0,0.0,0.7730773837827722,0.0010008464532826195
122,452480.55555555556,0.03741917800253458,0.038604571824109556,28.404701676602347,735.7859531772575,1.0,0.0,0.0,0.7752525252526654,0.0011853938215749746
122,499527.77777777775,0.051424535393601006,0.05188452475285283,38.58639809720561,743.6976300931419,1.0,0.0,0.0,0.831216875464179,0.00045998935925182366
122,547113.888888889,0.02483420946766954,0.024981439199901936,19.253016266605723,770.6928376921254,0.9841269841269841,0.0,0.0,0.5003619292484547,0.00014722973223239497
122,596397.2222222222,0.044476518506244136,0.045302130819813644,32.2900072948792,712.7701657855932,1.0,0.0,0.0,0.7510634750221439,0.000825612313569507
122,642008.3333333334,0.031026450757118833,0.03098370883473512,22.576538758354598,728.658369428148,1.0,0.0,0.0,0.5572995052480388,4.2741922383713465e-05
122,688519.4444444444,0.042416614449839775,0.042724366659867404,29.621501756005106,693.3163454902584,0.96875,0.0,0.0,0.7281590617102692,0.00030775221002762865
122,732922.2222222222,0.032852480203542506,0.03419857029760675,26.187840990363522,765.7583566350485,0.9841269841269841,0.0,0.0,0.6247812421870154,0.0013460900940642437
122,781958.3333333334,0.027645776937124285,0.028339440389523556,21.498920955766522,758.6219297299244,1.0,0.0,0.0,0.42800247697877686,0.0006936634523992714
122,830466.6666666667,0.0415985904682028,0.042484528247483874,32.22181311049458,758.4364106103238,0.984375,0.0,0.0,0.7391644654593096,0.0008859377792810735
122,878975.0,0.03175850924880762,0.03299453347759046,23.64210736652598,716.5461934045363,0.9841269841269841,0.0,0.0,0.6955340531299642,0.0012360242287828421
122,924877.7777777778,0.025715032405319003,0.02689850021431004,20.07206384892055,746.2149818391058,1.0,0.0,0.0,0.48888596537338985,0.001183467808991038
122,972694.4444444445,0.05012869575341876,0.05026527826529083,37.987730526309434,755.744956305966,1.0,0.0,0.0,0.856745706135895,0.0001365825118720687
122,1021105.5555555556,0.030239458527636674,0.030949117537629935,22.432461753189102,724.8174919984153,0.9841269841269841,0.0,0.0,0.5386262568394449,0.0007096590099932611
122,1067550.0,0.0355527456611928,0.03588425735529688,26.434882300808766,736.6707366707343,0.96875,0.0,0.0,0.6908570792555399,0.0003315116941040794
122,1114744.4444444445,0.03698311027331542,0.037596503874091754,28.893346559835365,768.5115258747809,1.0,0.0,0.0,0.7188530127331416,0.0006133936007763352
122,1163944.4444444443,0.04706787246100025,0.04633763192821048,36.25256887108351,782.3569604775778,0.984375,0.0,0.0,0.7740616704700097,0.0007302405327897707
122,1213863.8888888888,0.044966583484342924,0.04565491606491125,34.81542399958431,762.5777681878648,1.0,0.0,0.0,0.7576499757319235,0.0006883325805683224
122,1262611.111111111,0.02832862640826288,0.0287388717379783,21.35049685013461,742.913536926365,0.9841269841269841,0.0,0.0,0.6953266964976144,0.0004102453297154182
122,1310116.6666666665,0.038996466764837916,0.04014230451320742,28.44221253753819,708.5346215780979,1.0,0.0,0.0,0.7104136074392734,0.001145837748369502
122,1355441.6666666665,0.0598643298217573,0.06055700857589646,43.051841906580655,710.930789334211,0.9841269841269841,0.0,0.0,0.858172783797057,0.000692678754139156
122,1400897.222222222,0.030850463709850232,0.031826612831995546,23.686544846914476,744.2370626101375,1.0,0.0,0.0,0.607589232573161,0.0009761491221453138
122,1448530.5555555555,0.03831932146749378,0.03858576101762197,28.017111413822516,726.0997496207787,1.0,0.0,0.0,0.7001622607576311,0.0002664395501281863
122,1495080.5555555555,0.03552788928210729,0.03596138221490415,26.351698563451006,732.777689299428,0.984375,0.0,0.0,0.6754679572214934,0.0004334929327968612
122,1542036.111111111,0.05182601276536375,0.052094714303804614,40.26020104249865,772.8269860107159,1.0,0.0,0.0,0.8197134941834378,0.0002687015384408645
122,1591377.7777777778,0.02558287211440701,0.026147059795496162,18.237214540714483,697.4862444708161,0.9841269841269841,0.0,0.0,0.5122262558549829,0.0005641876810891511
122,1636027.7777777778,0.022892059780201514,0.024224925734560573,17.005450078707586,701.9815154457502,1.0,0.0,0.0,0.46453812316489496,0.0013328659543590596
122,1680980.5555555555,0.0497924249764195,0.05055489863828964,38.07025488135294,753.0477937210028,1.0,0.0,0.0,0.7417774995175916,0.0007624736618701347
122,1729097.2222222222,0.03265806756757148,0.033703318970470124,24.139354687806783,716.2307875066248,0.9841269841269841,0.0,0.0,0.702116053343719,0.001045251402898642
123,194.44444444444446,0.08031506015303791,0.07778168118011913,95.37023211020691,1226.1271634044263,1.0,0.0,0.0,0.3468955893468584,0.002533378972918776
123,78333.33333333333,0.10590882248224824,0.10637692921419509,127.08156803543223,1194.6346728955425,0.984375,0.0,0.0,0.5195731147787636,0.00046810673194684627
123,154763.88888888888,0.10277788436109052,0.10173385039274004,123.30699705843737,1212.0547544638775,0.9841269841269841,0.0,0.0,0.4454708865879327,0.001044033968350483
123,232016.6666666667,0.0932622060709735,0.09442305403862877,114.50157809841272,1212.6442981982955,1.0,0.0,0.0,0.5148256434470908,0.001160847967655268
123,309619.4444444445,0.09610071454632889,0.09414849836133701,113.50841182305969,1205.6316754773968,1.0,0.0,0.0,0.5104246791976845,0.0019522161849918757
123,386375.0,0.1287769176652814,0.12927674502373393,145.37648134973776,1124.536987089581,0.9841269841269841,0.016129032258064516,0.0,0.5393127417760443,0.0004998273584525259
123,458233.3333333334,0.10880695095833819,0.10885151017001378,128.8820680128759,1184.017270973794,0.984375,0.0,0.0,0.7516125597376688,4.455921167559329e-05
123,533961.1111111111,0.13314363105159377,0.16420517330213122,188.12315788881648,1145.6591415830553,0.9692307692307692,0.015625,0.0,0.6952283888237136,0.03106154225053745
123,608552.7777777778,0.0860444017867581,0.08739954213118338,104.4315672375454,1194.8754500429486,0.9841269841269841,0.0,0.0,0.5318371695427306,0.0013551403444252846
123,685100.0,0.06148129929743493,0.057070776016758494,69.13471752164959,1211.385622325314,1.0,0.0,0.0,-0.07968038023454502,0.004410523280676433
123,762205.5555555555,0.1044281462419517,0.10520294761921847,127.87642066852175,1215.5212716222534,1.0,0.0,0.0,0.5971204954178618,0.0007748013772667789
123,839961.1111111111,0.0696338690013899,0.06996325286170552,84.4223994025889,1206.6677284068594,0.984375,0.0,0.0,0.303155597393719,0.00032938386031561295
123,917072.2222222222,0.05817369556911299,0.05970995780454231,71.93453398252838,1204.7326212824105,1.0,0.0,0.0,-0.008917962610607125,0.0015362622354293184
123,994191.6666666667,0.09080015764766346,0.0913643788742832,108.37753217420914,1186.2121048656822,1.0,0.0,0.0,0.6794514075812126,0.0005642212266197405
123,1070075.0,0.09025373320475705,0.08944050497495744,107.90914386920426,1206.4907717081637,0.984375,0.0,0.0,0.478549264643526,0.0008132282297996091
123,1147450.0,0.08056328413278738,0.08123850704876322,96.52678364768325,1188.1900240946486,1.0,0.0,0.0,0.4554868472491156,0.0006752229159758399
123,1223397.222222222,0.06352957582821694,0.06410376045702428,77.91948442649036,1215.5212716222516,1.0,0.0,0.0,0.05515347530750729,0.000574184628807331
123,1301116.6666666665,0.12426855741003945,0.12570538883627308,147.9738307097311,1177.1478699490115,0.9841269841269841,0.0,0.0,0.7232167844756192,0.0014368314262336312
123,1376413.8888888888,0.10130199724212093,0.10204427192518477,120.66082860071504,1182.4360772467392,1.0,0.0,0.0,0.6125365476742031,0.0007422746830638427
123,1451841.6666666667,0.1501276238182571,0.15086620709112697,171.06525369810595,1133.887150717445,0.953125,0.016129032258064516,0.0,0.7266531020981434,0.0007385832728698805
123,1524166.6666666667,0.09696486780131128,0.0964581117228828,117.66314775560771,1219.8367317581901,1.0,0.0,0.0,0.5620729766580148,0.000506756078428483
123,1602327.7777777778,0.13914992140516025,0.13866979523771797,163.96816871349577,1182.4360772467392,0.9841269841269841,0.016129032258064516,0.0,0.5965973162596078,0.00048012616744227965
123,1678341.6666666667,0.07638285540975359,0.07674642698321132,91.90123540468065,1197.4659800746751,0.984375,0.0,0.0,0.5075131852549883,0.0003635715734577327
124,675.0,0.0282747951859484,0.028604135807294786,34.79465219843011,1216.4203258172402,0.9841269841269841,0.0,0.0,0.14582149446053058,0.00032934062134638495
124,78550.0,0.026083586178955318,0.026007053301167878,31.59356955504547,1214.8077365468669,0.984375,0.0,0.0,0.04593358329411725,7.653287778744064e-05
124,156319.44444444447,0.024444238865086128,0.024415889376793978,29.574200206004992,1211.2686025729506,0.984375,0.0,0.0,0.19995334183346125,2.83494882921502e-05
124,233877.77777777775,0.09977218826349912,0.10124902919274256,112.2015620014515,1108.1742007408207,1.0,0.0,0.0,0.8411114777739466,0.0014768409292434392
124,304144.44444444444,0.03246141569730246,0.044937570609687706,47.616985579690315,1059.6252742115298,1.0,0.0,0.0,-0.04784476370386507,0.012476154912385247
124,372063.8888888889,0.028772676578152665,0.02981175603293875,33.18592137665259,1113.1823747646986,0.9841269841269841,0.0,0.0,0.1705004973835609,0.0010390794547860856
124,443313.8888888889,0.04541075086655161,0.04585978653264772,52.61760327721959,1147.358225048888,0.9841269841269841,0.0,0.0,0.14556971696930335,0.00044903566609610923
124,516850.0,0.05418817381125717,0.11080824262951196,120.11560999920795,1083.9952619843925,0.9692307692307692,0.015625,0.0,0.5853495883566803,0.056620068818254786
124,587316.6666666667,0.07500045491811962,0.12992172210435807,139.89730831254397,1076.781511564118,0.9538461538461539,0.015873015873015872,0.0,-0.02011382174004851,0.05492126718623845
124,657341.6666666667,0.033116372524743476,0.03408394142654823,38.15343334568926,1119.3961657254602,0.9841269841269841,0.0,0.0,0.3503021857411428,0.0009675689018047509
124,729016.6666666666,0.025197888834568728,0.024897667124667185,28.148713570720503,1130.5763479676523,0.984375,0.0,0.0,0.01113444065849187,0.0003002217099015436
124,801394.4444444444,0.07417902395427023,0.07516454113264084,85.82278494484662,1141.7988276333313,0.96875,0.0,0.0,-0.4181965557776751,0.0009855171783706151
124,874494.4444444444,0.036837508687111796,0.03696116028010528,42.594324492968454,1152.407667134175,0.984375,0.0,0.0,0.16615891868910523,0.0001236515929934831
124,948277.7777777779,0.06548382907032121,0.07822372980762897,90.59410709485994,1158.140979951387,0.9841269841269841,0.0,0.0,-0.4171754502747222,0.012739900737307755
124,1022425.0,0.1408808722197499,0.16839017057882444,191.2420793783328,1135.7080922298326,0.96875,0.015873015873015872,0.0,-0.2939455557024253,0.027509298359074535
124,1096330.5555555555,0.030318471274660412,0.0295944329600948,34.663598428823136,1171.2878052288959,1.0,0.0,0.0,0.23661913180902552,0.0007240383145656129
124,1171191.6666666665,0.05879704475753155,0.059225673720217246,68.5396547745744,1157.2625597871036,1.0,0.0,0.0,-0.17425655171461982,0.0004286289626856954
124,1245302.7777777778,0.029573960409073688,0.03024920807965971,34.88661499315586,1153.3067213291595,0.9841269841269841,0.0,0.0,0.22830097307212602,0.0006752476705860211
124,1318961.1111111112,0.03870661763507775,0.03863878093924565,42.082046993384935,1089.1142518070992,1.0,0.0,0.0,0.43541682754119393,6.783669583210195e-05
124,1388663.8888888888,0.09942312005116496,0.1092493929713319,115.72412953467,1059.2656525335306,0.96875,0.0,0.0,-0.5041826050648194,0.00982627292016694
124,1456461.1111111112,0.04086184396683697,0.04153246861358929,42.942827787369374,1033.957990479733,0.984375,0.0,0.0,0.49798013161644267,0.00067062464675232
124,1522666.6666666667,0.06343158072543742,0.07721622404693601,83.27447376518639,1078.4582488075027,0.9841269841269841,0.0,0.0,-0.2337289767762099,0.01378464332149859
124,1591725.0,0.03460982137333165,0.03386770621612566,35.18675270916928,1038.9470277268313,0.984375,0.0,0.0,0.23828637380270618,0.0007421151572059859
124,1658125.0,0.08875869050619475,0.08948953960985111,86.4096859972131,965.5842054159035,1.0,0.0,0.0,-0.3408943643933698,0.000730849103656353
124,1719941.6666666665,0.05406209015366852,0.10749104857072453,110.19105714163773,1025.1184503901895,0.9692307692307692,0.03125,0.0,0.551487161757238,0.053428958417056006
200,625.0,0.28449980774838934,0.31497186281777617,216.49746441830806,687.3549353948499,0.9841269841269841,0.0,0.04918032786885246,-0.5862991721388324,0.030472055069386828
200,44986.11111111112,0.25748072554582796,0.3026833934149086,213.07683051378555,703.9594346747222,0.96875,0.0,0.0,-0.8027252000787551,0.045202667869080615
200,89683.33333333334,0.25514241250295683,0.29716673808427296,218.54424403291918,735.4263314992629,0.96875,0.0,0.0,-0.7003468174735938,0.042024325581316135
200,136869.44444444444,0.10743354418046404,0.1077972627718516,76.42762741565264,708.9941381666482,1.0,0.0,0.0,-0.14440070349292086,0.0003637185913875629
200,182327.77777777778,0.22189894524511036,0.27071806825511047,189.79568959734524,701.0824612507643,0.9841269841269841,0.0,0.0,-0.8792542694652992,0.048819123010000104
200,227672.22222222222,0.16540734648693953,0.181757062708409,119.5176715080109,657.5682382133997,0.96875,0.0,0.016129032258064516,-0.5551266701996159,0.016349716221469468
200,269647.22222222225,0.10997100368898742,0.13857899086578676,86.31913217737588,622.8875794093178,0.9538461538461539,0.0,0.0,-0.44633392780041625,0.02860798717679934
200,309663.8888888889,0.10556503199472521,0.15001549915700688,92.36038931089142,615.6723127270112,0.96875,0.0,0.0,-0.6250969292803004,0.04445046716228167
200,349122.2222222222,0.10999286421509946,0.13303653231477902,87.28922688830659,656.12975150142,1.0,0.0,0.0,-0.5133821835135264,0.02304366809967956
200,391116.6666666667,0.2477376681088136,0.2753563827827219,193.69118737116685,703.4200021577295,1.0,0.0,0.03225806451612903,-0.6231084803554515,0.027618714673908307
200,436175.0,0.23637215351261126,0.2689589271538947,189.48125950101783,704.4988671917151,0.96875,0.0,0.016129032258064516,-0.7083964788426004,0.03258677364128343
200,481761.1111111111,0.23066402346147966,0.26664667311370976,192.21536169181508,720.861653540474,0.984375,0.0,0.0,-0.7099354291273099,0.03598264965223011
200,528000.0,0.1202742165989517,0.1520483227884978,110.15303808039316,724.4607244607242,0.984375,0.0,0.0,-0.6326068104230009,0.03177410618954611
200,574158.3333333333,0.23639917361324336,0.28770942767847235,201.96500387685978,701.9756200084078,0.9393939393939394,0.0,0.0,-0.7836869764219224,0.05131025406522899
200,619080.5555555555,0.19465578675028308,0.20894388886181017,139.57692846584422,668.011537576754,0.9393939393939394,0.0,0.0,-0.42527895579985,0.01428810211152709
200,662538.8888888889,0.15057184776768515,0.19385239380169605,124.33406852422947,641.3852627036357,1.0,0.0,0.0,-0.5258918384088382,0.04328054603401091
200,703513.8888888889,0.1432932352768839,0.18448493534975752,123.19899734415483,667.7997697242154,0.9841269841269841,0.0,0.0,-0.6175948161494167,0.04119170007287362
200,746400.0,0.12778098585133002,0.15453786138091707,107.3238432749393,694.4825191439595,0.9841269841269841,0.0,0.0,-0.5178545865749644,0.026756875529587054
200,790611.1111111111,0.17528924640904978,0.21360245604709302,141.2263514376166,661.1644549933469,0.96875,0.0,0.0,-0.5966444552504054,0.038313209638043244
200,832980.5555555556,0.07613909776273332,0.09614931082079606,57.57133186486346,598.7700938612594,1.0,0.0,0.0,-0.0800835396234575,0.020010213058062734
200,871369.4444444444,0.07218772944145405,0.08573582266757258,52.69071722752735,614.570614570615,0.984375,0.0,0.0,0.07498778425019578,0.013548093226118538
200,910680.5555555555,0.14386605638004857,0.1698770374389484,110.18396583709404,648.6101211689233,0.9841269841269841,0.0,0.0,-0.5319252622399906,0.026010981058899818
200,952316.6666666667,0.19045318222248064,0.24571016826278289,165.37079868515053,673.0319703671736,0.9538461538461539,0.0,0.0,-0.772291442319387,0.05525698604030224
200,995608.3333333334,0.2530266697744184,0.29463505437472265,202.84194123025324,688.4514867408644,0.9841269841269841,0.0,0.01639344262295082,-0.7161813183252465,0.04160838460030425
200,1039869.4444444445,0.2515961237106927,0.2925012129967592,213.82076248688094,731.0081223124705,0.96875,0.0,0.015873015873015872,-0.7055613817195954,0.04090508928606651
200,1086902.7777777778,0.31203854958703836,0.3303810853518314,244.2778838002537,739.3821699572051,0.953125,0.0,0.04838709677419355,-0.6678267168546963,0.018342535764793055
200,1133744.4444444445,0.2747174103406513,0.29207343950466585,208.08119966834613,712.4276689494118,0.9538461538461539,0.0,0.0,-0.7287785181181212,0.017356029164014575
200,1180069.4444444443,0.24671754366447798,0.2990870447425599,209.25444871674475,699.6439745387873,0.984375,0.0,0.06451612903225806,-0.8069409920953567,0.05236950107808194
200,1224838.888888889,0.22708954172445706,0.29289036236850674,202.86504762172865,692.6313518178837,0.96875,0.0,0.0,-0.883108871946577,0.06580082064404968
200,1269236.111111111,0.24251642969175505,0.29493850405175825,204.22472905355252,692.4315619967797,0.984375,0.0,0.015873015873015872,-0.7396137432772678,0.05242207436000321
200,1313694.4444444443,0.2260314417906645,0.2807416621547821,200.15476147080162,712.9499766245942,1.0,0.0,0.0,-0.7872344408699877,0.05471022036411757
200,1359386.1111111112,0.22100830517080394,0.2779937945313404,189.39808096508938,681.3032689610526,1.0,0.0,0.0,-0.8380206674904705,0.056985489360536434
200,1403044.4444444445,0.19856823306259166,0.254062818495302,170.85534958327523,672.4925378501798,0.96875,0.0,0.0,-0.7741171436179055,0.055494585432710325
200,1445908.3333333333,0.1874768905202283,0.25393480097001314,171.29472565753227,674.561836357988,0.9841269841269841,0.0,0.0,-0.850508927528019,0.06645791044978483
200,1489100.0,0.24337203715699704,0.2740242815630922,197.716955171352,721.5307856790386,0.9841269841269841,0.0,0.01639344262295082,-0.5657229082014608,0.03065224440609518
200,1535150.0,0.2542611503300917,0.30215756270872624,228.06636584371276,754.792843174884,0.9841269841269841,0.0,0.0,-0.6889270008952715,0.04789641237863451
200,1583311.1111111112,0.2266426014075771,0.26173627264964544,196.93481632739233,752.4169819251803,0.9841269841269841,0.0,0.0,-0.6856137055001833,0.03509367124206833
200,1631522.222222222,0.23809923356111726,0.27603878666568743,204.25947006616497,739.9665551839462,0.9692307692307692,0.0,0.0,-0.5146350004730306,0.03793955310457017
200,1679375.0,0.21922022084766474,0.24781118179022574,187.6385238462693,757.1834430179462,0.9841269841269841,0.0,0.0,-0.5408232459358621,0.028590960942561
200,1727758.3333333335,0.21595981130131658,0.2573831805739318,195.58048712652268,759.880605602911,1.0,0.0,0.0,-0.7499472624880403,0.041423369272615196
201,441.66666666666663,0.18292526427353192,0.18277317314338482,125.37843987880986,685.9783507749847,0.9841269841269841,0.0,0.0,0.0608675852634508,0.0001520911301471084
201,44152.77777777778,0.21717671150306386,0.2187080518446589,141.25927324522868,645.8805336785701,1.0,0.0,0.0,0.06094698710743984,0.00153134034159505
201,85500.0,0.25545338587465327,0.25554520209484244,173.6916921035355,679.6906796906795,0.984375,0.0,0.0,0.2034707065240299,9.181622018916702e-05
201,129055.55555555555,0.2162299272996549,0.21868486348078517,148.15592757703644,677.4859732806985,0.9841269841269841,0.0,0.0,-0.040560103456577824,0.0024549361811302683
201,172425.0,0.26819084773329555,0.26772743622926454,182.9331207378008,683.2811881900242,1.0,0.0,0.03225806451612903,-0.026086896472726342,0.0004634115040310083
201,215925.0,0.1935009426939622,0.1957683748417357,132.35679674271344,676.0887546301294,1.0,0.0,0.0,0.29273251986235954,0.0022674321477735015
201,258997.22222222222,0.23009829667566278,0.2233808395722772,160.986515087152,720.6818427014781,0.96875,0.0,0.0,0.10656182137164638,0.006717457103385588
201,304477.77777777775,0.27428989097777623,0.27336054416865363,193.5652574776417,708.0950839716609,1.0,0.0,0.03225806451612903,0.07981023855758727,0.0009293468091225998
201,350033.3333333334,0.36140796462290414,0.3649779414020303,317.1686792897244,869.0078037904129,0.9841269841269841,0.0,0.16129032258064516,0.41997803077529416,0.0035699767791261827
201,410252.7777777778,0.3407916026577612,0.3425934284544585,387.81302079651243,1131.992001557219,0.890625,0.15873015873015872,0.0,0.47847685589644423,0.0018018257966972984
201,482061.1111111111,0.4685750195997347,0.47212004725106005,325.20431640792646,688.8170038562079,0.9841269841269841,0.0,0.11290322580645161,0.26838187645289907,0.003545027651325361
201,527788.8888888889,0.2829356729022681,0.28470443655633937,355.4838003824976,1248.6064659977712,0.96875,0.015873015873015872,0.0,0.3289181472081691,0.0017687636540712481
201,608541.6666666666,0.17611409151207574,0.23277386788688773,260.0216450642827,1117.0568561872915,0.9104477611940298,0.06153846153846154,0.0,-0.06369527004517714,0.05665977637481198
201,684047.2222222222,0.20708755709780047,0.2586480254510564,279.5199739931578,1080.696338221422,0.8955223880597015,0.09230769230769231,0.0,-0.14538930807954903,0.05156046835325595
201,756636.111111111,0.23414843140243347,0.2523178818802614,281.97138056709133,1117.5243643686822,0.9375,0.08064516129032258,0.0,-0.16358998641102301,0.01816945047782792
201,829600.0,0.17141176836149477,0.26018476220851355,277.8872760116941,1068.0382419512855,0.9117647058823529,0.07575757575757576,0.0,-0.028861157869158955,0.08877299384701878
201,903075.0,0.19253657390306014,0.2430124826395814,266.20713945956675,1095.4463596604048,0.9545454545454546,0.06153846153846154,0.0,-0.017930505592699316,0.05047590873652125
201,976897.2222222222,0.17641137539072088,0.2394882212567164,252.24203185618663,1053.254437869823,0.9393939393939394,0.07692307692307693,0.0,-0.11356047198550852,0.06307684586599552
201,1047483.3333333334,0.23979273506883286,0.23937393607353855,253.7327567075752,1059.9848958895234,0.9523809523809523,0.0967741935483871,0.0,0.07172511068747761,0.0004187989952943172
201,1115280.5555555555,0.2711255725009228,0.2750910426315884,297.9310851535713,1083.0272127492392,0.9841269841269841,0.0967741935483871,0.016129032258064516,0.14987660179051715,0.003965470130665616
201,1185597.2222222222,0.2632845086347582,0.2773962267670312,288.85776261380204,1041.3182831661106,0.8636363636363636,0.125,0.0,0.04772139928649595,0.014111718132272966
201,1253108.3333333333,0.22816842478374824,0.2306501806907767,260.27785780911444,1128.452867583305,0.890625,0.07936507936507936,0.0,-0.24600841825008446,0.0024817559070284545
201,1325377.7777777778,0.0982489104122154,0.18745515266849638,209.62311901185086,1118.2574393276734,0.9545454545454546,0.046153846153846156,0.0,0.1295570781771525,0.08920624225628099
201,1400400.0,0.22646218782954008,0.24467590795700267,261.4645450765042,1068.6158161614007,0.96875,0.14285714285714285,0.015873015873015872,0.00579815939391887,0.018213720127462585
201,1470722.2222222222,0.5135770024915289,0.5082662670997852,506.7282739360819,996.9740404523022,0.8939393939393939,0.23076923076923078,0.1076923076923077,-0.32116005555574373,0.005310735391743759
201,1538877.7777777778,0.5482483608357154,0.5394944027598476,495.28833965745747,918.0602006689063,0.984375,0.12698412698412698,0.14285714285714285,0.08305478967555642,0.008753958075867763
201,1601502.7777777778,0.271470113165032,0.27434550049520934,171.8667464532862,626.4609630668514,1.0,0.0,0.03225806451612903,0.12638473506237577,0.002875387330177337
201,1641652.7777777778,0.18153299038750703,0.18445312494193222,121.39110384631739,658.1135661677328,0.9841269841269841,0.0,0.0,-0.16652624858575785,0.002920134554425191
201,1683877.7777777778,0.1968830474044212,0.19728692312685622,126.11123309166231,639.2275326356645,0.9841269841269841,0.0,0.0,0.0868304259536231,0.00040387572243502645
201,1724925.0,0.22165416024682122,0.22026363121474105,144.99679107368038,658.2874815693883,1.0,0.0,0.016129032258064516,-0.013231565082657737,0.0013905290320801733
202,966.6666666666666,0.07807042675183264,0.07821975473392188,88.40572162686186,1130.2224345702607,0.984375,0.0,0.0,-0.43627006227768655,0.0001493279820892479
202,73261.11111111111,0.034370244705569264,0.03445050016226595,38.90192056299317,1129.2120689035137,1.0,0.0,0.0,0.4079035480228795,8.025545669668871e-05
202,145444.44444444447,0.03587890245024169,0.036081025403370694,41.130747225940794,1139.9550529985313,0.984375,0.0,0.0,0.3863966391050102,0.0002021229531290053
202,218380.55555555556,0.12948834083337712,0.12990600808815023,145.85719971674766,1122.7902532250353,0.984375,0.0,0.0,-0.44882987519950185,0.00041766725477310196
202,290252.7777777778,0.08107195003744966,0.08159505871523395,93.34679170320608,1144.0250570685362,0.984375,0.0,0.0,-0.41706156192810184,0.0005231086777842953
202,363508.3333333333,0.09650323807234086,0.09749135232380442,110.6669017190235,1135.1458265904269,1.0,0.0,0.0,-0.18661054674296543,0.0009881142514635566
202,436166.6666666667,0.07201268174124559,0.07225573601389501,80.65659890931428,1116.265688495703,0.96875,0.0,0.0,-0.2701048284439808,0.00024305427264942336
202,507644.44444444444,0.04462970697530097,0.0451988910980035,50.00697251160061,1106.3760923508473,1.0,0.0,0.0,0.6318826099287979,0.000569184122702529
202,578411.1111111111,0.11105796753049266,0.16058133630441596,146.65690256480835,913.2873467112586,0.9692307692307692,0.03125,0.0,0.09828009833505427,0.0495233687739233
202,638730.5555555556,0.10010438094914785,0.10216523742069446,93.46988660343179,914.8893396933335,0.9841269841269841,0.0,0.0,-0.25868604214461516,0.002060856471546607
202,697388.8888888889,0.20612577810363664,0.2081825025976688,209.9643357914053,1008.5589959362725,0.9841269841269841,0.0967741935483871,0.0,-0.07192549689201667,0.0020567244940321583
