record,y,rr_cv,rmssd_norm,pnn_norm,iqr_norm,mad_norm,range_norm,turning_point_ratio
00,0,0.0328790009112267,0.021814244080965925,0.04838709677419355,0.04605263157899708,0.026315789473535963,0.1447368421053409,0.7049180327868853
00,0,0.024881365764969767,0.022669328746526562,0.016129032258064516,0.0259740259741475,0.012987012987141559,0.10389610389618316,0.8688524590163934
00,0,0.01746538219689155,0.017636005163144376,0.0,0.02499999999999021,0.012499999999995105,0.07499999999997063,0.7213114754098361
00,0,0.02431500229641769,0.021424313153729297,0.0,0.03749999999991516,0.012500000000124004,0.08750000000008484,0.6229508196721312
00,0,0.01390898257149557,0.02141072261214379,0.0,0.012500000000058738,0.012499999999862942,0.0625000000000979,0.7704918032786885
00,0,0.011550008856170389,0.019440885202744566,0.0,0.012345679012469824,0.012345679012211985,0.03703703703715163,0.7540983606557377
00,0,0.015827722696418484,0.01795954544755053,0.0,0.024691358024678624,0.012345679012339312,0.07407407407403588,0.7868852459016393
00,0,0.01543219574685922,0.020546743030126123,0.0,0.01898734177220544,0.012658227847960717,0.06329113924059668,0.6721311475409836
00,0,0.011506058437043902,0.016689467696277063,0.0,0.01265822784822843,0.012658227847964063,0.05063291139238499,0.5573770491803278
00,0,0.014647444049155169,0.019428566622016738,0.016129032258064516,0.025316455695928126,0.012658227847964063,0.06329113924061341,0.7704918032786885
00,0,0.013640374542116378,0.01783627564292139,0.0,0.025316455695928126,0.012658227847964063,0.06329113924061341,0.7213114754098361
00,0,0.04934018425201277,0.08194219718241406,0.04838709677419355,0.025316455696192494,0.01265822784822843,0.5189873417718139,0.5737704918032787
00,0,0.018182399372764887,0.016514411758047107,0.0,0.025641025641286532,0.012820512820643266,0.07692307692332408,0.6065573770491803
00,0,0.019938300401870664,0.018632664825888448,0.016129032258064516,0.012987012987139798,0.012987012986868565,0.09090909090916488,0.6229508196721312
00,0,0.038028979399710276,0.021428252263775482,0.03225806451612903,0.039999999999844056,0.026666666666377063,0.14666666666674463,0.6557377049180327
00,0,0.019675184832313005,0.020814013335625377,0.0,0.021739130434841828,0.0144927536230261,0.10144927536209074,0.6065573770491803
00,0,0.022635582831165315,0.017069471508686457,0.0,0.029411764705864287,0.014705882353085708,0.11764705882345715,0.4918032786885246
00,0,0.02011405201073142,0.01816104864555328,0.0,0.028985507246514993,0.014492753623333165,0.08695652173939364,0.5901639344262295
00,0,0.020117622549131638,0.020411812910942313,0.016129032258064516,0.02777777777805173,0.013888888889025865,0.0694444444445492,0.6885245901639344
00,0,0.017120837613842192,0.014902230714568719,0.0,0.027777777777761664,0.013888888888735797,0.0694444444445492,0.6065573770491803
00,0,0.016369947090691374,0.015046355510067104,0.0,0.01408450704254146,0.01408450704210023,0.07042253521138361,0.5901639344262295
00,0,0.014291648723687317,0.014779558043728745,0.0,0.0142857142858592,0.014285714285560846,0.05714285714313845,0.6229508196721312
00,0,0.014635618759366628,0.011033898380128195,0.0,0.02816901408420046,0.01408450704210023,0.056338028168989224,0.6065573770491803
00,0,0.018993624978305593,0.015790642346675474,0.0,0.02777777777776972,0.013888888888739827,0.06944444444456933,0.4918032786885246
00,0,0.022603680019709804,0.02382260049430351,0.03225806451612903,0.027027027027152886,0.013513513513647,0.12162162162169408,0.5245901639344263
00,0,0.0562870828820031,0.06047544016964109,0.06451612903225806,0.058441558441451005,0.02597402597373713,0.37662337662352807,0.8032786885245902
00,0,0.012569019850037205,0.016995426008412782,0.0,0.01298701298714332,0.012987012986872087,0.051948051948030816,0.6065573770491803
00,0,0.013726054402338806,0.018637239493886352,0.0,0.02597402597373713,0.012987012986597333,0.06493506493515652,0.5901639344262295
00,0,0.02606144569474069,0.028854344230517165,0.03225806451612903,0.038461538461373686,0.0128205128206364,0.15384615384656578,0.5409836065573771
00,0,0.02221762607972971,0.020284280241616746,0.0,0.025974025974279596,0.012987012987139798,0.10389610389603345,0.7213114754098361
00,0,0.02239939895082641,0.018693535276685463,0.016129032258064516,0.04225352112659484,0.014084507042394383,0.08450704225377799,0.6557377049180327
00,0,0.02287383253132916,0.017736220328929474,0.0,0.04109589041080998,0.01369863013712739,0.08219178082219214,0.639344262295082
00,0,0.06966303193927832,0.06449241286043407,0.04838709677419355,0.0405405405403651,0.013513513513643187,0.48648648648663906,0.5573770491803278
00,0,0.021151207664646093,0.02037560608848561,0.016129032258064516,0.02531645569645686,0.01265822784822843,0.10126582278476998,0.6557377049180327
00,0,0.021557066259760914,0.01964103393119795,0.016129032258064516,0.025641025641005045,0.0128205128206364,0.11538461538465658,0.45901639344262296
00,0,0.02306293049533743,0.023871691921682443,0.0,0.03703703703716118,0.012345679012988683,0.08641975308679536,0.7213114754098361
00,0,0.012841933297756604,0.017441381259417448,0.0,0.012658227847964063,0.012658227847699698,0.05063291139291372,0.6065573770491803
00,0,0.01577953214962779,0.01903560529848526,0.0,0.025316455695928126,0.01265822784822843,0.06329113924114214,0.6065573770491803
00,0,0.06735138190633978,0.11559064136703692,0.04838709677419355,0.01265822784822843,0.012658227847699698,0.7341772151903754,0.5245901639344263
00,0,0.019009386218977693,0.016777058829167926,0.0,0.02531645569645686,0.01265822784822843,0.06329113924061341,0.4426229508196721
00,0,0.027471381391222828,0.02112341021409514,0.03225806451612903,0.03749999999986947,0.012500000000652654,0.11250000000013054,0.5081967213114754
00,0,0.015370742080048402,0.01900777791484254,0.016129032258064516,0.012500000000124004,0.012500000000124004,0.06250000000062002,0.6557377049180327
00,0,0.02384638051861389,0.0208256945920759,0.016129032258064516,0.03205128205160816,0.012820512821178775,0.08974358974343184,0.6885245901639344
00,0,0.019510391872496435,0.021944062421040852,0.016129032258064516,0.025000000000248008,0.012500000000124004,0.09999999999942566,0.8032786885245902
00,0,0.01831758324388194,0.022033399200757746,0.016129032258064516,0.02531645569645686,0.01265822784822843,0.06329113924114214,0.7213114754098361
00,0,0.021468823662899195,0.018050064251459174,0.016129032258064516,0.03749999999958883,0.012500000000124004,0.08749999999982379,0.6557377049180327
00,0,0.01892680254861311,0.017708468412714076,0.0,0.025316455696192494,0.01265822784822843,0.08860759493707027,0.5409836065573771
00,0,0.021639419452774963,0.025427267477938,0.11290322580645161,0.025974025974279596,0.012987012987139798,0.09090909090889365,0.5737704918032787
00,0,0.028468447690813085,0.037506114436576435,0.20967741935483872,0.0512820512817698,0.02564102564075102,0.11538461538471836,0.6065573770491803
00,0,0.028395192633408305,0.02898332542112894,0.12903225806451613,0.037974683544156555,0.025316455695928126,0.1139240506329984,0.5081967213114754
00,0,0.025304533292618767,0.026567272501397107,0.08064516129032258,0.02564102564182204,0.012820512820643266,0.11538461538471836,0.7049180327868853
00,0,0.01895155567665628,0.03063561478804241,0.1935483870967742,0.025974025974279596,0.012987012987139798,0.07792207792229632,0.8360655737704918
00,0,0.04093482188020383,0.025199118481039062,0.06451612903225806,0.06666666666705652,0.039999999999844056,0.1466666666670231,0.6721311475409836
00,0,0.014197282033149496,0.023910240937266822,0.04838709677419355,0.01449275362332878,0.014492753622723419,0.10144927536269609,0.7377049180327869
00,0,0.01806972392401754,0.02547454479687927,0.03225806451612903,0.0289855072460522,0.01449275362332878,0.10144927536209074,0.6721311475409836
00,0,0.018846978020145413,0.020382621071729452,0.016129032258064516,0.027777777777471594,0.013888888889025865,0.08333333333357505,0.6557377049180327
00,0,0.021239982568871437,0.02049843120952755,0.03225806451612903,0.02857142857112169,0.0142857142858592,0.11428571428568018,0.45901639344262296
00,0,0.01885282968474232,0.020448690869398097,0.0,0.014084507042394383,0.014084507042394383,0.09859154929558407,0.639344262295082
00,0,0.022289636449735764,0.020646228061113582,0.016129032258064516,0.028985507246372427,0.014492753622732193,0.08695652173941995,0.6721311475409836
00,0,0.02630019008068082,0.019162553902732648,0.0,0.044117647058949994,0.014705882353085708,0.10294117647037143,0.6229508196721312
00,0,0.028590099487972233,0.020227723438246376,0.0,0.04285714285698089,0.0142857142858592,0.14285714285680187,0.5737704918032787
00,0,0.03829610949509964,0.048045598680896445,0.08064516129032258,0.04109589041078646,0.02739726027366691,0.27397260273953006,0.5737704918032787
00,0,0.0164805398275999,0.02116221917842611,0.04838709677419355,0.012987012987689308,0.012987012986604377,0.07792207792233859,0.5737704918032787
00,0,0.02044149324967992,0.022596217706040384,0.04838709677419355,0.025316455695928126,0.01265822784822843,0.08860759493654154,0.6557377049180327
00,0,0.023142951776092473,0.022609119941440263,0.06451612903225806,0.02531645569645686,0.01265822784822843,0.1012658227852987,0.5245901639344263
00,0,0.05062751610842359,0.08051060277552557,0.04838709677419355,0.02469135802546169,0.012345679012988683,0.4938271604937635,0.7704918032786885
00,0,0.022565820710916017,0.019398587399107745,0.0,0.03658536585301248,0.012195121951343754,0.109756097561075,0.7213114754098361
00,0,0.01470661763310458,0.020294504180143367,0.0,0.02469135802391466,0.012345679012473007,0.061728395062365035,0.6229508196721312
00,0,0.03028157241612193,0.018550096526376077,0.0,0.04999999999947788,0.02500000000026106,0.13749999999934734,0.5573770491803278
00,0,0.02656923433985543,0.019576923440465674,0.0,0.0316455696205878,0.012658227849292585,0.11392405063305863,0.7049180327868853
00,0,0.024393286893141346,0.025004118342313714,0.06451612903225806,0.018750000000717918,0.01250000000013053,0.11250000000013054,0.7540983606557377
00,0,0.021741223525993895,0.02922113951035839,0.12903225806451613,0.031249999999804205,0.01250000000013053,0.08750000000091371,0.7540983606557377
00,0,0.04844938268917597,0.08143192936377627,0.04838709677419355,0.025316455696443474,0.012658227848221737,0.5063291139246396,0.7213114754098361
00,0,0.022253084009690255,0.019706365848966293,0.016129032258064516,0.037974683544176636,0.012658227849292585,0.11392405063305863,0.8032786885245902
00,0,0.025006672317734024,0.027105232981888865,0.08064516129032258,0.037974683544136474,0.0126582278492792,0.11392405063293816,0.7540983606557377
00,0,0.021312202069639737,0.02938350691672949,0.14516129032258066,0.03846153846083818,0.0128205128206364,0.08974358974338378,0.8524590163934426
00,0,0.02126983750651171,0.032321981109576445,0.14516129032258066,0.0379746835436479,0.012658227849292585,0.08860759493764585,0.9016393442622951
00,0,0.02233833848927789,0.04013537247502892,0.25806451612903225,0.03246753246730703,0.012987012987139798,0.09090909090889365,0.7540983606557377
00,0,0.05003264763888439,0.04075552932433899,0.3225806451612903,0.07792207792283878,0.025974025974279596,0.19480519480601202,0.7540983606557377
00,0,0.023164888258041152,0.03653688774907242,0.25806451612903225,0.025316455696443474,0.012658227848221737,0.10126582278471642,0.8524590163934426
00,0,0.019091410542805713,0.026594850154221167,0.08064516129032258,0.025316455696443474,0.012658227848221737,0.08860759493649469,0.819672131147541
00,0,0.018140946003864542,0.023461275048891412,0.03225806451612903,0.03205128205105549,0.0128205128206364,0.064102564103182,0.7704918032786885
00,0,0.018916884386408567,0.029446468012001497,0.14516129032258066,0.025316455696443474,0.012658227848221737,0.07594936708933042,0.7213114754098361
00,0,0.026568452048430446,0.03866195770015746,0.1774193548387097,0.049999999999425664,0.02499999999919071,0.09999999999989558,0.7704918032786885
00,0,0.018364434705102167,0.02516519367979814,0.04838709677419355,0.02500000000026106,0.01250000000013053,0.1,0.7704918032786885
00,0,0.025768949400226494,0.035159889822417086,0.22580645161290322,0.025316455697527707,0.012658227849292585,0.11392405063305863,0.6557377049180327
00,0,0.027714454000387922,0.03027266983733785,0.06451612903225806,0.03750000000035243,0.02499999999919071,0.09999999999989558,0.7377049180327869
00,0,0.03184024440829551,0.04159574862367777,0.16129032258064516,0.049999999999425664,0.02499999999919071,0.137500000000248,0.7377049180327869
00,0,0.03337145074944772,0.03733361197644384,0.12903225806451613,0.048780487805375014,0.024390243902687507,0.15853658536543125,0.7704918032786885
00,0,0.028412475004833543,0.049474832083613376,0.4032258064516129,0.04878048780435624,0.024390243902687507,0.10975609756005622,0.8688524590163934
00,0,0.071143740184457,0.12098762057418093,0.12903225806451613,0.03658536585301248,0.012195121951343754,0.7560975609741437,0.6885245901639344
00,0,0.021728156723886533,0.030547754923774408,0.0967741935483871,0.024691358024430336,0.012345679012473007,0.09876543209978406,0.6721311475409836
00,0,0.03303604366615063,0.025215659729742337,0.03225806451612903,0.03703703703738082,0.024691358023889193,0.14814814814849192,0.6065573770491803
00,0,0.027323755654689686,0.037188028550363426,0.1774193548387097,0.04938271604886067,0.02469135802391466,0.11111111111225706,0.7377049180327869
00,0,0.021903461450566535,0.03516964375612813,0.0967741935483871,0.025000000000234956,0.012500000000117478,0.0874999999997781,0.8688524590163934
00,0,0.02454945937331322,0.03836134613480489,0.1935483870967742,0.037500000000874556,0.02499999999919071,0.09999999999989558,0.6885245901639344
00,0,0.022603373822236192,0.034934087538682386,0.0967741935483871,0.037037037036387666,0.012345679012473007,0.08641975308731105,0.8852459016393442
00,0,0.029113134043480746,0.03986738409485221,0.20967741935483872,0.04999999999994779,0.025000000000234956,0.11250000000001305,0.819672131147541
00,0,0.025073506761280097,0.03722104056640116,0.1774193548387097,0.024691358025977366,0.012345679012473007,0.11111111111225706,0.8032786885245902
00,0,0.027147164637269905,0.038925061331121655,0.1935483870967742,0.03658536585352187,0.012195121951343754,0.10975609756209379,0.7704918032786885
00,0,0.025095627767276935,0.034438226019695754,0.12903225806451613,0.03658536585403126,0.02439024390166873,0.109756097561075,0.7704918032786885
00,0,0.02339992315211216,0.027327573656759776,0.04838709677419355,0.03086419753066684,0.012345679012473007,0.09876543209978406,0.6721311475409836
00,0,0.03201107771496109,0.04285998719335799,0.1774193548387097,0.04374999999993474,0.024999999999216815,0.15000000000052213,0.7868852459016393
00,0,0.02272275780519491,0.02468182586752631,0.03225806451612903,0.037499999999308184,0.02499999999919071,0.0874999999997781,0.5901639344262295
00,0,0.02638712508019996,0.021522296689697,0.04838709677419355,0.037500000000391595,0.012500000001174776,0.10000000000104424,0.45901639344262296
00,0,0.02170585596543425,0.030611127990312285,0.08064516129032258,0.01851851851922519,0.012345679012473007,0.08641975308731105,0.7868852459016393
00,0,0.02188493869014636,0.03531201153885075,0.22580645161290322,0.02500000000026106,0.01250000000013053,0.08749999999986947,0.8032786885245902
00,0,0.05939914906374935,0.02781769632275396,0.04838709677419355,0.08666666666642162,0.03999999999928713,0.2933333333340462,0.5245901639344263
00,0,0.01978839743540858,0.023282751219041716,0.03225806451612903,0.027777777776875342,0.013888888889017808,0.1111111111109822,0.6557377049180327
00,0,0.022999880767880735,0.02201609293310924,0.03225806451612903,0.02702702702730163,0.013513513513650814,0.1081081081080776,0.4918032786885246
00,0,0.020012843162070797,0.016564818999012125,0.0,0.02702702702730163,0.013513513513650814,0.08108108108190488,0.5081967213114754
00,0,0.022853884307711327,0.025153010092437946,0.08064516129032258,0.02702702702730163,0.013513513513650814,0.1216216216217284,0.4918032786885246
00,0,0.020504522963652617,0.027290620387308243,0.04838709677419355,0.013513513514200015,0.013513513512506644,0.14864864864886224,0.6229508196721312
00,0,0.04150742704755028,0.034187661094302525,0.04838709677419355,0.05479452054850956,0.02739726027425478,0.2602739726031316,0.5081967213114754
00,0,0.08943442927319892,0.1249197607041108,0.1774193548387097,0.08108108108181335,0.02702702702840003,0.7702702702693244,0.39344262295081966
00,0,0.025377695274228448,0.03159698204047691,0.08064516129032258,0.03472222222196438,0.013888888889017808,0.13888888888901782,0.6557377049180327
00,0,0.016845309636416523,0.02012661465222799,0.016129032258064516,0.013698630137683902,0.013698630135967334,0.09589041095863761,0.5901639344262295
00,0,0.018950524440985873,0.024767501515111895,0.04838709677419355,0.0273972602731104,0.01369863013712739,0.09589041095874734,0.6721311475409836
00,0,0.02176258286450649,0.029487363964413697,0.06451612903225806,0.02702702702730163,0.013513513513650814,0.12162162162285732,0.5245901639344263
00,0,0.01691008946386537,0.023445874469901047,0.03225806451612903,0.013698630137111712,0.013698630135967334,0.12328767123286104,0.7049180327868853
00,0,0.01689541760487022,0.02131325218802665,0.03225806451612903,0.020547945205118896,0.01369863013712739,0.09589041095989172,0.47540983606557374
00,0,0.023964945221457847,0.023321051694300557,0.04838709677419355,0.027027027027866083,0.013513513513650814,0.10810810810920651,0.5737704918032787
00,0,0.025439056562679255,0.024468047004261997,0.04838709677419355,0.034246575343351474,0.01369863013825609,0.12328767123286104,0.5737704918032787
00,0,0.02040817212901415,0.029911833303503752,0.06451612903225806,0.013698630137111712,0.013698630135967334,0.12328767123400541,0.5737704918032787
00,0,0.0207207451521934,0.02851253336178823,0.06451612903225806,0.020547945205118896,0.013698630135983011,0.10958904109587474,0.6229508196721312
00,0,0.059262711302777486,0.09785589632110146,0.1774193548387097,0.013888888890194196,0.013888888889033923,0.5833333333347837,0.7213114754098361
00,0,0.030474956783251936,0.022646148006756923,0.04838709677419355,0.056338028168434064,0.028169014083628725,0.15492957746525274,0.5737704918032787
00,0,0.04072698109306878,0.019174229089398726,0.016129032258064516,0.05479452054844685,0.027397260275367805,0.16438356164419618,0.639344262295082
00,0,0.02136809024285037,0.027185390063384048,0.04838709677419355,0.025974025974822058,0.012987012987139798,0.10389610389603345,0.7377049180327869
00,0,0.021226448265880077,0.023180962711279864,0.04838709677419355,0.025974025974279596,0.012987012987139798,0.10389610389603345,0.639344262295082
00,0,0.016707659569230378,0.01578423956800021,0.0,0.025974025974279596,0.012987012987139798,0.06493506493569899,0.5573770491803278
00,0,0.0205738075628578,0.022374246642912855,0.04838709677419355,0.03846153846087937,0.01282051282065013,0.07692307692390078,0.6885245901639344
00,0,0.018369661207707406,0.023994394524370678,0.016129032258064516,0.025974025974279596,0.012987012987139798,0.07792207792283878,0.7049180327868853
00,0,0.014714763182572962,0.02367990527635266,0.04838709677419355,0.012987012988224727,0.012987012987139798,0.06493506493461405,0.7213114754098361
00,0,0.01770415376502203,0.021770134399530985,0.03225806451612903,0.025974025973194665,0.012987012987139798,0.06493506493569899,0.5901639344262295
00,0,0.01831265418747499,0.018055583969672728,0.016129032258064516,0.025974025973194665,0.012987012987139798,0.09090909090780872,0.47540983606557374
00,0,0.016493522986995506,0.018440319293574668,0.016129032258064516,0.025974025974279596,0.012987012987139798,0.07792207792175385,0.6065573770491803
00,0,0.03935075248768913,0.04732633610607801,0.0967741935483871,0.03896103896141939,0.012987012987139798,0.27272727272668096,0.5737704918032787
00,0,0.026491662410114802,0.02252493722505501,0.04838709677419355,0.032894736841881086,0.013157894736972275,0.11842105263165126,0.47540983606557374
00,0,0.02204997746068607,0.024152857028155308,0.04838709677419355,0.026666666666933993,0.013333333333466996,0.10666666666662211,0.639344262295082
00,0,0.017432079772471028,0.023237185153236768,0.03225806451612903,0.025974025973194665,0.012987012987139798,0.06493506493569899,0.6721311475409836
00,0,0.013377472207150515,0.018512828827666257,0.0,0.012987012988224727,0.012987012986054867,0.05194805194855919,0.6229508196721312
00,0,0.014449965953710902,0.021652216937890444,0.016129032258064516,0.012987012988252907,0.012987012983913186,0.06493506493475495,0.5737704918032787
00,0,0.01836273325336003,0.018529212309770608,0.016129032258064516,0.025974025974279596,0.012987012986054867,0.07792207792283878,0.5409836065573771
00,0,0.0641235366849402,0.07347981460308235,0.11290322580645161,0.052631578945632834,0.02631578947391562,0.4342105263141117,0.6229508196721312
00,0,0.02421848447741121,0.01638819473957182,0.0,0.0285714285740882,0.0142857142870441,0.10000000000214816,0.639344262295082
00,0,0.02359823085738386,0.01809296010273136,0.0,0.02857142857176955,0.014285714287078198,0.0857142857176955,0.6065573770491803
00,0,0.04326648424207491,0.03235430248920366,0.03225806451612903,0.057142857141015864,0.0142857142870441,0.27142857142996946,0.6721311475409836
00,0,0.031858779464030006,0.04354343300901749,0.20967741935483872,0.027397260276543534,0.013698630138271767,0.13698630136898512,0.6557377049180327
00,0,0.02469944843878661,0.026825443290742042,0.0967741935483871,0.02702702702733214,0.013513513514794984,0.13513513513214503,0.6065573770491803
00,0,0.02344554639971354,0.03016763188020245,0.0967741935483871,0.02027027027106356,0.013513513512537155,0.12162162161960788,0.6065573770491803
00,0,0.03441456713799324,0.022950085202192886,0.03225806451612903,0.04000000000040099,0.013333333334580859,0.16000000000160397,0.5409836065573771
00,0,0.019301924894135195,0.014348895424950396,0.0,0.027777777778100077,0.01388888889021031,0.055555555558520694,0.39344262295081966
00,0,0.01929544868802441,0.025040573111748506,0.06451612903225806,0.013698630138271767,0.013698630135983011,0.10958904109473036,0.7377049180327869
00,0,0.02211397377470066,0.030727003484818678,0.11290322580645161,0.013513513514794984,0.013513513512537155,0.0945945945967914,0.6721311475409836
00,0,0.02296335111382756,0.020586999044519497,0.016129032258064516,0.040540540539777764,0.013513513514764472,0.09459459459657782,0.5245901639344263
00,0,0.04590481657912717,0.031465941381569315,0.11290322580645161,0.041095890412526544,0.027397260271966022,0.21917808219403823,0.4918032786885246
00,0,0.07073976331421587,0.11729345928966645,0.08064516129032258,0.027027027027271118,0.013513513512506644,0.7297297297295466,0.5245901639344263
00,0,0.02901695437784821,0.026153683313594727,0.0967741935483871,0.03246753246947689,0.012987012988224727,0.1428571428596227,0.5245901639344263
00,0,0.033513664668382626,0.02978478272100659,0.0967741935483871,0.013698630140560525,0.013698630138271767,0.16438356164323992,0.5737704918032787
00,0,0.015773447232335723,0.01692368717103638,0.016129032258064516,0.013513513514764472,0.013513513512506644,0.08108108108181335,0.5901639344262295
00,0,0.012199259120134863,0.015204975377417385,0.0,0.013157894738057016,0.013157894735858605,0.06578947368588826,0.7049180327868853
00,0,0.016837625899288795,0.026147552009539936,0.03225806451612903,0.02564102564130026,0.01282051281957911,0.0897435897434799,0.6557377049180327
00,0,0.017779973943987726,0.022044348483059126,0.06451612903225806,0.012987012986054867,0.012987012986054867,0.09090909090889365,0.6229508196721312
00,0,0.015172774230917008,0.01979859666442779,0.016129032258064516,0.012987012988224727,0.012987012986054867,0.06493506493461405,0.6065573770491803
00,0,0.015543331689851994,0.023129873319392737,0.04838709677419355,0.019230769230439686,0.01282051281957911,0.06410256410432168,0.7540983606557377
00,0,0.015508050477877504,0.02263585067337402,0.03225806451612903,0.012987012988224727,0.012987012986054867,0.07792207792066892,0.7213114754098361
00,0,0.019154062259066556,0.02319781509873601,0.016129032258064516,0.02564102564130026,0.01282051281957911,0.07692307692390078,0.7049180327868853
00,0,0.01936315534493969,0.02141068423447037,0.016129032258064516,0.025974025973194665,0.012987012986054867,0.07792207792066892,0.6229508196721312
00,0,0.02183938015012914,0.021785053249397182,0.03225806451612903,0.03846153846087937,0.012820512821721152,0.102564102563059,0.5245901639344263
00,0,0.030307629490901548,0.03188381015029505,0.06451612903225806,0.03896103896033446,0.012987012988224727,0.16883116883390228,0.6557377049180327
00,0,0.012687877237845896,0.01996622284705241,0.016129032258064516,0.02631578947391562,0.013157894735858605,0.05263157894783124,0.7868852459016393
00,0,0.019819612945625162,0.021010225666886838,0.03225806451612903,0.03896103896033446,0.012987012988224727,0.07792207792283878,0.5245901639344263
00,0,0.020800790949314737,0.020801829301607986,0.03225806451612903,0.025974025974279596,0.012987012988224727,0.10389610389711838,0.6229508196721312
00,0,0.06411132589956817,0.08528570337668999,0.1774193548387097,0.04666666666769142,0.026666666666933993,0.4800000000003564,0.5245901639344263
00,0,0.03927661301264814,0.03292219567004432,0.12903225806451613,0.027027027027271118,0.013513513514764472,0.20270270270114663,0.5245901639344263
00,0,0.017522715813502517,0.01847419983379104,0.016129032258064516,0.013333333334580859,0.013333333332353136,0.07999999999857425,0.4918032786885246
00,0,0.014621450156624277,0.019632767183420073,0.03225806451612903,0.013157894738057016,0.013157894735858605,0.06578947368368986,0.6065573770491803
00,0,0.02081113034327435,0.019133602244949994,0.0,0.026666666666933993,0.013333333334580859,0.08000000000080199,0.639344262295082
00,0,0.01826580223655251,0.019360617808651365,0.0,0.02666666666582013,0.013333333332353136,0.0800000000030297,0.639344262295082
00,0,0.024496177809688383,0.0198178360543301,0.03225806451612903,0.039473684209861006,0.026315789471775063,0.09210526315780795,0.5245901639344263
00,0,0.019345931313777393,0.025747447461102736,0.04838709677419355,0.025974025975364523,0.012987012988224727,0.07792207792283878,0.7377049180327869
00,0,0.016246069372856012,0.023123269297904623,0.03225806451612903,0.02631578947391562,0.013157894735858605,0.06578947368588826,0.639344262295082
00,0,0.021598265345847162,0.02846297400556373,0.12903225806451613,0.02631578947391562,0.013157894738057016,0.09210526315760548,0.7049180327868853
00,0,0.0661361776381173,0.06228277240361652,0.08064516129032258,0.057971014490823494,0.028985507246622466,0.5072463768122609,0.47540983606557374
00,0,0.035692814267503835,0.023064722231854635,0.016129032258064516,0.053333333333867985,0.026666666666933993,0.12000000000231684,0.7049180327868853
00,0,0.018497733828615234,0.02461343724669939,0.04838709677419355,0.019480519482337092,0.012987012986054867,0.09090909090889365,0.7213114754098361
00,0,0.06972201110010541,0.11256174205956426,0.08064516129032258,0.03896103896141939,0.012987012988224727,0.7012987012968696,0.6557377049180327
00,0,0.027682803597591978,0.02434235883773765,0.03225806451612903,0.025974025976449454,0.012987012988224727,0.1168831168853431,0.7868852459016393
00,0,0.01807091108477528,0.01989063517984244,0.016129032258064516,0.012987012988224727,0.012987012986054867,0.09090909091106351,0.7213114754098361
00,0,0.026909883745335695,0.02425439942553116,0.06451612903225806,0.04605263157780477,0.026315789471775063,0.11842105263178143,0.6065573770491803
00,0,0.017318324623686807,0.02302448345616266,0.03225806451612903,0.025974025972109734,0.012987012986054867,0.07792207792283878,0.5737704918032787
00,0,0.029177923428905947,0.02526005358945433,0.03225806451612903,0.04487179487164383,0.025641025639103296,0.115384615384533,0.7213114754098361
00,0,0.021747572485989585,0.018180180729943998,0.0,0.03896103896033446,0.012987012988224727,0.07792207792500865,0.5409836065573771
00,0,0.031191173794120817,0.021876289620588112,0.03225806451612903,0.04000000000151485,0.02666666666470627,0.10666666666773597,0.5573770491803278
00,0,0.020570499271655114,0.017981196666295253,0.0,0.027027027027271118,0.013513513514764472,0.08108108108181335,0.5409836065573771
00,0,0.02284433845123076,0.019306989837977115,0.0,0.026666666666933993,0.013333333334580859,0.11999999999786139,0.4426229508196721
00,0,0.017075557100684754,0.017863074797991308,0.0,0.0199999999985297,0.013333333332353136,0.08000000000080199,0.4262295081967213
00,0,0.016069154170870154,0.02048236119586114,0.03225806451612903,0.013157894738057016,0.013157894735858605,0.07894736842174686,0.639344262295082
00,0,0.015729203405764558,0.021876621174156955,0.016129032258064516,0.025974025972109734,0.012987012986054867,0.06493506493678392,0.6885245901639344
00,0,0.025434928244540845,0.021300478474249693,0.016129032258064516,0.03947368420977423,0.013157894738057016,0.1184210526337195,0.5573770491803278
00,0,0.02743785851861744,0.022926836106140283,0.016129032258064516,0.03246753246730703,0.012987012988224727,0.12987012987139798,0.4918032786885246
00,0,0.031653307761324856,0.020344391311066773,0.016129032258064516,0.04605263157890398,0.026315789473973474,0.11842105262958302,0.6557377049180327
00,0,0.025519743541732358,0.03180745311998775,0.12903225806451613,0.03797468354149282,0.0126582278492792,0.12658227848221737,0.7868852459016393
00,0,0.018134774929696944,0.028480506425715032,0.0967741935483871,0.025316455697500937,0.0126582278492792,0.07594936708933042,0.6721311475409836
00,0,0.01987595267307441,0.02635679487864358,0.06451612903225806,0.018987341772901494,0.012658227847191044,0.10126582278598806,0.7704918032786885
00,0,0.018474453575736304,0.02283261778043049,0.016129032258064516,0.02500000000026106,0.012499999999086285,0.08750000000195796,0.7377049180327869
00,0,0.023937886005844608,0.021932245198381894,0.03225806451612903,0.03846153846079699,0.01282051282169369,0.08974358974328767,0.6721311475409836
00,0,0.014309279126780849,0.020238462725877357,0.03225806451612903,0.019230769231510708,0.01282051281957911,0.06410256410432168,0.4918032786885246
00,0,0.01445060550964886,0.017651268623239968,0.0,0.012987012987139798,0.012987012986054867,0.06493506493678392,0.6065573770491803
00,0,0.01805743077255962,0.019182257304445668,0.03225806451612903,0.02666666666582013,0.013333333332353136,0.10666666666550825,0.5409836065573771
00,0,0.01899480877371829,0.017261390279438876,0.0,0.026666666669161718,0.013333333334580859,0.0800000000030297,0.639344262295082
00,0,0.018652008644618745,0.017391531942703525,0.0,0.026315789473973474,0.013157894738085943,0.07894736842192042,0.47540983606557374
00,0,0.015593343191105315,0.018914523332396575,0.0,0.025974025972109734,0.012987012986054867,0.06493506493461405,0.7377049180327869
00,0,0.017241726146242992,0.01920134061884755,0.0,0.02564102564130026,0.01282051281957911,0.08974358974562194,0.6721311475409836
00,0,0.02093391447030084,0.027470213017315687,0.08064516129032258,0.018987341772901494,0.012658227847191044,0.12658227848037015,0.639344262295082
00,0,0.028940566460446543,0.01873400809246786,0.0,0.039473684211972636,0.02631578947171721,0.10526315789346408,0.4918032786885246
00,0,0.04326229114854198,0.045321662300028,0.1774193548387097,0.03947368421087343,0.02631578947171721,0.2368421052652406,0.7540983606557377
00,0,0.02504346910689911,0.025066398911693367,0.0967741935483871,0.020270270269888882,0.013513513512506644,0.12162162162384894,0.5245901639344263
00,0,0.030711362767581334,0.03329912307934942,0.08064516129032258,0.013333333332353136,0.013333333332353136,0.21333333333324422,0.5737704918032787
00,0,0.04139621158300554,0.03953642143925279,0.0967741935483871,0.026315789473973474,0.013157894738085943,0.21052631578958939,0.4426229508196721
00,0,0.028367357837728226,0.03605526401355159,0.06451612903225806,0.02631578947391562,0.013157894738057016,0.15789473684349373,0.5245901639344263
00,0,0.019910414382206833,0.026868609373577896,0.04838709677419355,0.012987012988224727,0.012987012986054867,0.11688311688317324,0.6065573770491803
00,0,0.016857258636449685,0.026836855064157214,0.03225806451612903,0.02564102564130026,0.01282051281957911,0.11538461538478016,0.7049180327868853
00,0,0.018087354141232713,0.025755420015234863,0.03225806451612903,0.0126582278492792,0.012658227847164272,0.08860759493860962,0.6229508196721312
00,0,0.015046722288077323,0.02371681739378755,0.03225806451612903,0.025316455694328544,0.012658227847164272,0.07594936708721549,0.7213114754098361
00,0,0.015590714445524493,0.024050025936116326,0.06451612903225806,0.012658227849305972,0.012658227847191044,0.06329113924441493,0.7540983606557377
00,0,0.014308826729264118,0.020049457892282477,0.016129032258064516,0.012500000001174776,0.012499999999086285,0.06249999999960841,0.7377049180327869
00,0,0.023440648826970844,0.02523379535468505,0.06451612903225806,0.03896103896141939,0.012987012988224727,0.10389610389711838,0.5901639344262295
00,0,0.023666291865828065,0.030435739980399158,0.11290322580645161,0.019230769230439686,0.01282051281957911,0.15384615384780156,0.6065573770491803
00,0,0.019341716734883094,0.026573095262840116,0.04838709677419355,0.025974025976449454,0.012987012988224727,0.10389610389711838,0.7213114754098361
00,0,0.028558529275842185,0.018910373940825124,0.0,0.04285714285765432,0.014285714289465045,0.1142857142870782,0.6557377049180327
00,0,0.06540872769336736,0.09331351284337604,0.06451612903225806,0.07352941176420003,0.029411764706171416,0.5735294117642,0.6065573770491803
00,0,0.03306178382191421,0.02531546225690567,0.08064516129032258,0.0472972972983957,0.02702702702733214,0.12162162162412354,0.5409836065573771
00,0,0.018247917624399968,0.021844514448583992,0.016129032258064516,0.02702702702733214,0.013513513512537155,0.09459459459453357,0.6721311475409836
00,0,0.02169606746175832,0.018689011536917623,0.016129032258064516,0.01388888889017808,0.013888888887857536,0.11111111110982191,0.6229508196721312
00,0,0.020851015919401687,0.02278509156139257,0.04838709677419355,0.020547945206216243,0.013698630135951658,0.09589041095852788,0.7049180327868853
00,0,0.019698782447365983,0.021639791663454463,0.03225806451612903,0.02739726027425478,0.013698630135983011,0.09589041095874734,0.5081967213114754
00,0,0.01879428127439925,0.017899917238897844,0.0,0.027397260271966022,0.013698630135983011,0.08219178082276433,0.6229508196721312
00,0,0.024190396970659726,0.02219252685923099,0.03225806451612903,0.02739726027425478,0.013698630135983011,0.10958904109473036,0.5901639344262295
00,0,0.018221223436074855,0.02495976998475548,0.03225806451612903,0.02739726027425478,0.013698630135983011,0.09589041096103611,0.5737704918032787
00,0,0.018247917624442674,0.021080239400991387,0.016129032258064516,0.020547945206216243,0.013698630135951658,0.09589041095623912,0.5901639344262295
00,0,0.021654665707737834,0.022945861787376252,0.04838709677419355,0.026666666666933993,0.013333333334580859,0.10666666666773597,0.6557377049180327
00,0,0.019680353641196364,0.0195453954439821,0.016129032258064516,0.013698630138271767,0.013698630135983011,0.09589041096103611,0.5901639344262295
00,0,0.018864664459845797,0.02495560536381505,0.06451612903225806,0.020547945206216243,0.013698630135951658,0.08219178082257622,0.6885245901639344
00,0,0.014950919545498122,0.019748915729255176,0.0,0.013698630138240415,0.013698630135951658,0.06849315068662457,0.6721311475409836
00,0,0.01868687445709382,0.019231160446376905,0.0,0.026666666666933993,0.013333333332353136,0.08000000000080199,0.5737704918032787
00,0,0.01812217946033867,0.016469354727506918,0.0,0.026666666666933993,0.013333333334580859,0.08000000000080199,0.6885245901639344
00,0,0.01743566982949229,0.02420871303078646,0.03225806451612903,0.026315789473973474,0.013157894735887531,0.07894736842192042,0.819672131147541
00,0,0.017920155214293354,0.02205654004417103,0.04838709677419355,0.02631578947391562,0.013157894738057016,0.09210526315760548,0.6229508196721312
00,0,0.021056164749980472,0.02292993560205501,0.03225806451612903,0.03333333333311056,0.013333333334580859,0.09333333333315512,0.6721311475409836
00,0,0.02803320479387862,0.03130058408455735,0.14516129032258066,0.03947368420977423,0.02631578947171721,0.1184210526315211,0.6557377049180327
00,0,0.017938233813577294,0.024833606776922312,0.016129032258064516,0.013333333334580859,0.013333333332353136,0.06666666666844885,0.8032786885245902
00,0,0.020460644976005193,0.021882711134618617,0.016129032258064516,0.026666666669161718,0.013333333334580859,0.09333333333538284,0.6557377049180327
00,0,0.026485330053250905,0.02161859668446395,0.03225806451612903,0.03999999999928713,0.026666666666933993,0.1200000000000891,0.5573770491803278
00,0,0.021045139598042682,0.022362853801835864,0.016129032258064516,0.026666666669161718,0.013333333334580859,0.09333333333315512,0.6885245901639344
00,0,0.021842856235098847,0.024168477675614308,0.04838709677419355,0.02631578947287427,0.013157894735887531,0.1052631578958939,0.5573770491803278
00,0,0.023317000133057524,0.024252601540192122,0.03225806451612903,0.026666666668047855,0.013333333334580859,0.09333333333538284,0.5737704918032787
00,0,0.01986508562163836,0.019221228086225874,0.03225806451612903,0.013513513514764472,0.013513513512506644,0.10810810810908447,0.6229508196721312
00,0,0.029155772088394767,0.02008256329211172,0.0,0.05333333333164026,0.026666666666933993,0.10666666666773597,0.6721311475409836
00,0,0.06990705949658294,0.020289554669350077,0.0,0.13698630136898512,0.04109589041023779,0.21917808219174947,0.6229508196721312
00,0,0.0331505582080927,0.03167975842752653,0.06451612903225806,0.03731343283561619,0.014925373135742707,0.2537313432826888,0.6721311475409836
00,0,0.04102519846945167,0.029675970905426154,0.0967741935483871,0.04285714285755203,0.0142857142870441,0.18571428571486537,0.6065573770491803
00,0,0.04354686532257362,0.035779336832699786,0.06451612903225806,0.0428571428564609,0.028571428569382704,0.2142857142870782,0.6557377049180327
00,0,0.02851963906886254,0.02210249709329039,0.03225806451612903,0.040540540539777764,0.013513513514764472,0.12162162162159111,0.6721311475409836
00,0,0.04632790995511465,0.027110661161915333,0.08064516129032258,0.0657894736849337,0.039473684209861006,0.19736842105370186,0.5573770491803278
00,0,0.026994168056136268,0.03126679391595455,0.14516129032258066,0.03246753246947689,0.012987012988224727,0.11688311688317324,0.6885245901639344
00,0,0.01769839666808766,0.024124574662782762,0.016129032258064516,0.025974025972109734,0.012987012986054867,0.07792207792500865,0.6229508196721312
00,0,0.0166983060471875,0.023806525537151613,0.03225806451612903,0.013157894738057016,0.013157894735858605,0.09210526315760548,0.6885245901639344
00,0,0.01704693730479348,0.025843083873533974,0.06451612903225806,0.025974025974279596,0.012987012986054867,0.07792207792283878,0.6885245901639344
00,0,0.02148671682725746,0.019195018623450022,0.0,0.025974025973194665,0.012987012986054867,0.09090909091106351,0.7049180327868853
00,0,0.019932528299269482,0.02228072332823268,0.016129032258064516,0.020000000000757426,0.013333333332353136,0.09333333333538284,0.5737704918032787
00,0,0.02236980910588967,0.02610166977300273,0.016129032258064516,0.03896103896033446,0.012987012988224727,0.07792207792500865,0.7377049180327869
00,0,0.015576964616298936,0.02041106166332797,0.03225806451612903,0.025641025640229242,0.01282051281957911,0.06410256410432168,0.5901639344262295
00,0,0.015348704427051153,0.020983595435463166,0.016129032258064516,0.012987012988224727,0.012987012986054867,0.06493506493678392,0.639344262295082
00,0,0.017382025040221315,0.024378800467520043,0.06451612903225806,0.019230769232581726,0.012820512821721152,0.07692307692390078,0.7049180327868853
00,0,0.02256109461858037,0.019606205650836556,0.016129032258064516,0.025641025641245336,0.01282051282169369,0.0897435897454297,0.7049180327868853
00,0,0.020404493165203375,0.026759612649575194,0.06451612903225806,0.02564102564130026,0.012820512821721152,0.102564102563059,0.6557377049180327
00,0,0.026465906036107587,0.025350860100820657,0.06451612903225806,0.03846153846195039,0.02564102563915822,0.08974358974562194,0.7049180327868853
00,0,0.016463799808505576,0.026478266380142664,0.04838709677419355,0.018987341772861335,0.0126582278492792,0.06329113924005121,0.7540983606557377
00,0,0.02186463056795645,0.023543609589609625,0.11290322580645161,0.025316455694328544,0.012658227847164272,0.1012658227857739,0.5573770491803278
00,0,0.025114525363671373,0.02312402595128117,0.08064516129032258,0.03749999999934735,0.012500000001174776,0.11250000000221902,0.639344262295082
00,0,0.01758830595266576,0.022226265849297107,0.016129032258064516,0.018987341772861335,0.012658227847164272,0.07594936709144534,0.7377049180327869
00,0,0.019038270429798727,0.0226980386134464,0.0,0.025000000000208848,0.01249999999906018,0.08749999999968673,0.639344262295082
00,0,0.02332635114065511,0.024570615600158118,0.0,0.024390243904725058,0.012195121952362529,0.109756097561075,0.5573770491803278
00,0,0.01770418773041099,0.022218579264597613,0.016129032258064516,0.024390243902687507,0.012195121950324976,0.08536585366042505,0.7540983606557377
00,0,0.03632174887048972,0.018945040192388234,0.0,0.04545454545553176,0.025974025974279596,0.14285714285745282,0.4262295081967213
00,0,0.021583490298770974,0.01896098059934792,0.0,0.03846153846087937,0.012820512821721152,0.07692307692390078,0.639344262295082
00,0,0.0135017143900529,0.019025180534637826,0.0,0.01948051948016723,0.012987012986054867,0.05194805194855919,0.5901639344262295
00,0,0.020054653457602815,0.01818722511254764,0.016129032258064516,0.032467532466222096,0.012987012988224727,0.09090909090889365,0.6557377049180327
00,0,0.019007750330877198,0.024766933350969658,0.06451612903225806,0.025974025974279596,0.012987012986054867,0.09090909090672379,0.639344262295082
00,0,0.01582724474490692,0.018375133676693904,0.016129032258064516,0.02564102563915822,0.01282051281957911,0.07692307692175875,0.7049180327868853
00,0,0.014966885037385209,0.024558043755511908,0.04838709677419355,0.01282051282169369,0.012820512819551648,0.07692307692159397,0.8360655737704918
00,0,0.019120785944943007,0.026110580348395026,0.08064516129032258,0.025641025641245336,0.012820512819551648,0.08974358974328767,0.6885245901639344
00,0,0.017021878674190614,0.02575633687677262,0.04838709677419355,0.012820512821721152,0.01282051281957911,0.06410256410432168,0.6885245901639344
00,0,0.018273220843327134,0.019369058456183263,0.016129032258064516,0.012987012988224727,0.012987012986054867,0.10389610389711838,0.5901639344262295
00,0,0.019760032468639867,0.020355304115326406,0.03225806451612903,0.02631578947391562,0.013157894738057016,0.09210526315760548,0.6229508196721312
00,0,0.020498929242610278,0.02627189324541085,0.08064516129032258,0.026315789476114033,0.013157894738057016,0.07894736842394527,0.6885245901639344
00,0,0.020511691354514174,0.0259254948758074,0.04838709677419355,0.026315789476114033,0.013157894738057016,0.07894736842394527,0.6885245901639344
00,0,0.01550416805131553,0.022801928679765902,0.016129032258064516,0.02564102563915822,0.012820512821721152,0.06410256410432168,0.7704918032786885
00,0,0.02120689090014066,0.026744557565469763,0.0967741935483871,0.018987341771884186,0.012658227845102888,0.08860759493686948,0.8032786885245902
00,0,0.018378640199475695,0.026275362888858254,0.06451612903225806,0.025316455694328544,0.0126582278492792,0.0759493670956752,0.7213114754098361
00,0,0.022623444857177884,0.024858556206939636,0.0967741935483871,0.03205128205216084,0.012820512821721152,0.0897435897434799,0.639344262295082
00,0,0.015766122889816228,0.024066949272815434,0.04838709677419355,0.012820512821721152,0.012820512821721152,0.06410256410432168,0.7213114754098361
00,0,0.0185343984298541,0.027589275606569125,0.08064516129032258,0.012987012990366408,0.012987012983856827,0.10389610389255322,0.8360655737704918
00,0,0.016422430215339352,0.022155069618385922,0.06451612903225806,0.01948051948012496,0.012987012983856827,0.06493506493664301,0.639344262295082
00,0,0.03140522797456575,0.02671278697361301,0.04838709677419355,0.03246753246846241,0.012987012988252907,0.12987012987384963,0.7049180327868853
00,0,0.02562015166144872,0.018046638829856188,0.016129032258064516,0.03999999999928713,0.013333333334580859,0.12000000000231684,0.4262295081967213
00,0,0.02213101541105903,0.021395691430061807,0.04838709677419355,0.025974025972166092,0.012987012988252907,0.11688311688125701,0.5081967213114754
00,0,0.035846270955451245,0.02094868607041833,0.03225806451612903,0.03896103896475872,0.025974025972166092,0.18181818181818182,0.4918032786885246
00,0,0.017729991431836515,0.019638107934158936,0.0,0.025974025972053373,0.012987012983856827,0.07792207792483956,0.639344262295082
00,0,0.03164111567966801,0.016139723373163384,0.016129032258064516,0.03289473683869194,0.01315789473811487,0.1447368421060731,0.4426229508196721
00,0,0.019211959777507268,0.0174535924050002,0.0,0.026315789471832916,0.01315789473811487,0.09210526316240726,0.6065573770491803
00,0,0.019084545958059498,0.022699676281487825,0.03225806451612903,0.03846153846087937,0.012820512821721152,0.07692307692604283,0.6229508196721312
00,0,0.013467642441003935,0.021508160609713497,0.016129032258064516,0.02564102563915822,0.012820512821721152,0.06410256410003759,0.6557377049180327
00,0,0.014923584149052435,0.025753088871742102,0.03225806451612903,0.025974025972166092,0.012987012983913186,0.05194805194867191,0.819672131147541
00,0,0.027655299133803296,0.028841631894677602,0.06451612903225806,0.03999999999928713,0.013333333334580859,0.1466666666670231,0.5409836065573771
00,0,0.023732320915773892,0.024526542206657787,0.06451612903225806,0.03999999999928713,0.013333333334580859,0.10666666666773597,0.5737704918032787
00,0,0.018165198965415685,0.018591131641037366,0.0,0.026315789471832916,0.013157894733718046,0.0789473684242924,0.6557377049180327
00,0,0.04467831669330179,0.05566915251676572,0.03225806451612903,0.026666666669161718,0.013333333334580859,0.3466666666679142,0.5573770491803278
00,0,0.024405561128705244,0.02265291545670579,0.06451612903225806,0.026315789471832916,0.013157894733718046,0.13157894737235507,0.5081967213114754
00,0,0.030896020254259218,0.03125497015359465,0.08064516129032258,0.026315789471832916,0.01315789473811487,0.17105263158230283,0.4426229508196721
00,0,0.014465178526198061,0.01985547035931858,0.03225806451612903,0.013513513514733962,0.013513513510218305,0.09459459459862207,0.5245901639344263
00,0,0.024863645424210868,0.03131771778667976,0.06451612903225806,0.01369863014281793,0.013698630138240415,0.16438356164515244,0.6229508196721312
00,0,0.02453065017283679,0.03333059018815316,0.12903225806451613,0.03999999999928713,0.013333333334580859,0.1333333333368977,0.6229508196721312
00,0,0.02319055044980449,0.024988184561788054,0.04838709677419355,0.02702702702507431,0.013513513514794984,0.1081081081048129,0.7540983606557377
00,0,0.017469933174117623,0.018574312174933147,0.016129032258064516,0.013333333334580859,0.013333333334580859,0.0800000000030297,0.6065573770491803
00,0,0.016443907067754487,0.025153010094227473,0.06451612903225806,0.027027027024952265,0.013513513510218305,0.0675675675736698,0.819672131147541
00,0,0.014247128675138101,0.01971490252602753,0.0,0.02702702702733214,0.013513513514794984,0.06756756756042795,0.6721311475409836
00,0,0.02493711183662744,0.02342116352755752,0.06451612903225806,0.027027027029467923,0.013513513514733962,0.10810810811335603,0.6557377049180327
00,0,0.01952736449652483,0.03181044707115861,0.14516129032258066,0.02054794520964938,0.013698630138240415,0.0958904109631054,0.7377049180327869
00,0,0.016905589349880124,0.023308032645513725,0.03225806451612903,0.02739726027648083,0.013698630138240415,0.06849315068662457,0.6557377049180327
00,0,0.019169094987891086,0.017601006277173897,0.0,0.020547945205165924,0.013698630133725607,0.09589041095896682,0.6065573770491803
00,0,0.01768482478111632,0.013699712123220659,0.0,0.014084507043579284,0.014084507043579284,0.08450704225206279,0.45901639344262296
00,0,0.02993331197541083,0.033255977214737685,0.03225806451612903,0.03521126760642926,0.014084507048219454,0.2112676056338691,0.7377049180327869
00,0,0.022841054040262328,0.02623612721604997,0.08064516129032258,0.028169014087158568,0.014084507043579284,0.11267605633922136,0.639344262295082
00,0,0.049531419429946426,0.05058771386997266,0.0967741935483871,0.028169014087158568,0.014084507043579284,0.3661971831001162,0.5245901639344263
00,0,0.01642643406026002,0.02101486454529392,0.016129032258064516,0.028985507244201025,0.014492753624521952,0.07246376811776688,0.6721311475409836
00,0,0.033008679311984444,0.02985064943663036,0.11290322580645161,0.041666666670727624,0.0277777777712029,0.15277777777874468,0.639344262295082
00,0,0.034444033383778515,0.04029616352497342,0.0967741935483871,0.04166666666589315,0.01388888889017808,0.23611111110982191,0.5081967213114754
00,0,0.01474457248595291,0.018322810537680714,0.0,0.006944444447409586,4.641090830163965e-12,0.0694444444508904,0.6065573770491803
00,0,0.03952106423173952,0.026920274272212552,0.03225806451612903,0.07352941176420003,0.029411764708628465,0.16176470588271427,0.5737704918032787
00,0,0.03172645890351224,0.02170512957583929,0.016129032258064516,0.03623188406148035,0.014492753629435015,0.14492753623139276,0.6885245901639344
00,0,0.020836092524303882,0.016104069558096568,0.0,0.02777777777584399,0.01388888889024254,0.08333333333681416,0.5409836065573771
00,0,0.030136544043563262,0.023579967939924344,0.03225806451612903,0.04166666666589315,0.027777777775715072,0.11111111111678355,0.5409836065573771
00,0,0.02769221262258311,0.037663578619990416,0.1774193548387097,0.04054054054194405,0.013513513519249617,0.12162162162357434,0.7540983606557377
00,0,0.015356922359252186,0.024993764435370255,0.04838709677419355,0.02702702702507431,0.013513513510279327,0.0675675675649436,0.6885245901639344
00,0,0.020536386214761553,0.02957983429999566,0.11290322580645161,0.027027027024952265,0.013513513514733962,0.0810810810838881,0.8360655737704918
00,0,0.020240613015978154,0.030641836409445195,0.0967741935483871,0.027027027029589968,0.013513513514794984,0.06756756756945927,0.7049180327868853
00,0,0.022904071330013116,0.02375203506789025,0.03225806451612903,0.04109589041014373,0.013698630138240415,0.09589041095852788,0.6557377049180327
00,0,0.013579014111080985,0.015163835912795723,0.0,0.013513513517052812,0.013513513510279327,0.06756756756945927,0.6721311475409836
00,0,0.023952441291264507,0.031019379621609597,0.1935483870967742,0.026666666666933993,0.013333333334580859,0.10666666667219142,0.7540983606557377
00,0,0.033756036433860444,0.03756341784511142,0.16129032258064516,0.020000000001871288,0.013333333334580859,0.18666666666631024,0.5901639344262295
00,0,0.015667378851124826,0.020411945692354955,0.03225806451612903,0.01428571428939685,0.014285714282236309,0.09999999999952264,0.6721311475409836
00,0,0.0380290162537386,0.034526305998200904,0.0967741935483871,0.02816901408245211,0.014084507043579284,0.1690140845135385,0.5081967213114754
00,0,0.015013356857759324,0.01748861518952967,0.0,0.027777777775715072,0.01388888888553699,0.06944444444624931,0.6721311475409836
00,0,0.0698343211366884,0.11695273715868092,0.08064516129032258,0.013698630142880634,0.01369863013830312,0.7260273972614026,0.6557377049180327
00,0,0.019991836599925216,0.02927948399599605,0.0967741935483871,0.027397260272028726,0.013698630133725607,0.09589041095896682,0.7540983606557377
00,0,0.016236294557471494,0.02346144933984031,0.03225806451612903,0.01351351351931064,0.013513513514794984,0.09459459459453357,0.6885245901639344
00,0,0.015599630250660291,0.02243377311569185,0.0,0.019999999999643563,0.013333333334580859,0.06666666666844885,0.6557377049180327
00,0,0.01460779647039401,0.02175303415986374,0.016129032258064516,0.02702702702507431,0.013513513510279327,0.06756756757397492,0.7213114754098361
00,0,0.0194299383803391,0.0255291301748044,0.04838709677419355,0.03378378378472963,0.013513513514794984,0.08108108108425424,0.639344262295082
00,0,0.018257046029611805,0.030754295652796654,0.08064516129032258,0.013698630138240415,0.0136986301336629,0.08219178082486497,0.7704918032786885
00,0,0.02264961048919875,0.03461224030233509,0.1935483870967742,0.040540540539869295,0.013513513514794984,0.10810810810932855,0.6721311475409836
00,0,0.018924767401049675,0.024106416075889318,0.016129032258064516,0.027397260272028726,0.01369863013830312,0.06849315068693809,0.7049180327868853
00,0,0.01352334444925002,0.02063216515360773,0.03225806451612903,0.02083333333062603,0.01388888888553699,0.06944444444624931,0.639344262295082
00,0,0.012685579266866712,0.016806562164237652,0.0,0.013698630138240415,0.0136986301336629,0.05479452054838414,0.639344262295082
00,0,0.017322684271342315,0.019832820214294573,0.0,0.020547945205165924,0.013698630133725607,0.06849315068693809,0.7213114754098361
00,0,0.020658572759941922,0.029978494294288283,0.06451612903225806,0.02777777778035616,0.01388888889017808,0.0972222222173233,0.7540983606557377
00,0,0.01290196084637851,0.018124404650043856,0.0,0.02083333333062603,0.01388888888553699,0.05555555556071232,0.639344262295082
00,0,0.00929357670505319,0.014164414093453542,0.0,0.01369863013830312,4.5775142434645235e-12,0.027397260281183757,0.7213114754098361
00,0,0.014829495796061853,0.021447129603872354,0.016129032258064516,0.01369863013830312,0.013698630133725607,0.06849315068693809,0.7868852459016393
00,0,0.015977629288798506,0.028105114797060567,0.08064516129032258,0.027777777775715072,0.01388888889017808,0.06944444444624931,0.6229508196721312
00,0,0.01955382336087122,0.02041497878550356,0.0,0.027397260271903316,0.013698630138240415,0.08219178082486497,0.639344262295082
00,0,0.022541494355794733,0.026389978514995003,0.08064516129032258,0.027397260271903316,0.013698630138240415,0.08219178082486497,0.6065573770491803
00,0,0.016830308289158807,0.024514188768316666,0.04838709677419355,0.01369863013830312,0.013698630133725607,0.0821917808206637,0.7049180327868853
00,0,0.019641097602162982,0.03332520999412813,0.1774193548387097,0.02777777778035616,0.01388888889017808,0.0833333333364274,0.7213114754098361
00,0,0.016364075380358552,0.025822461389649727,0.06451612903225806,0.01369863014281793,0.0136986301336629,0.08219178082028746,0.7868852459016393
00,0,0.015244411630880625,0.020364361932449244,0.04838709677419355,0.01388888889017808,0.01388888888553699,0.06944444444624931,0.6229508196721312
00,0,0.01735318166544669,0.02576520554878309,0.016129032258064516,0.027397260272028726,0.013698630133725607,0.05479452055321248,0.8032786885245902
00,0,0.014737595076131128,0.02333178645355078,0.04838709677419355,0.014084507048285743,0.014084507038872826,0.056338028174317135,0.6885245901639344
00,0,0.014483089196773427,0.02120262826120574,0.0,0.014084507045932513,0.014084507038872826,0.07042253521318996,0.6229508196721312
00,0,0.017203144578200907,0.024022557204716334,0.016129032258064516,0.028571428569382704,0.014285714282304504,0.0857142857176955,0.7377049180327869
00,0,0.01567467213380678,0.01838343284193904,0.03225806451612903,0.01449275362936483,0.014492753619679074,0.07246376811776688,0.5245901639344263
00,0,0.025790341228130145,0.018894588534306794,0.016129032258064516,0.028169014087158568,0.014084507043579284,0.11267605633922136,0.5081967213114754
00,0,0.016023948289310162,0.02583603989240158,0.03225806451612903,0.014285714287010002,0.014285714282236309,0.09999999999952264,0.6885245901639344
00,0,0.01556616766198477,0.020427453772813162,0.0,0.028571428569382704,0.014285714282304504,0.0571428571435391,0.6721311475409836
00,0,0.015250324533609626,0.0224451884388766,0.0,0.014285714287010002,0.014285714282236309,0.08571428571728631,0.7049180327868853
00,0,0.01607607915400018,0.024905569239113506,0.016129032258064516,0.028169014087158568,0.014084507043579284,0.07042253521318996,0.639344262295082
00,0,0.016850034685105993,0.028823140638855868,0.04838709677419355,0.02816901408245211,0.014084507043579284,0.056338028174317135,0.7213114754098361
00,0,0.013580591406105612,0.019577094326620276,0.0,0.02816901408245211,0.014084507043579284,0.05633802816961068,0.639344262295082
00,0,0.019797438157705887,0.02537268385669876,0.03225806451612903,0.028571428569246313,0.014285714282236309,0.09999999999952264,0.6885245901639344
00,0,0.02281100315122406,0.024953646643215213,0.03225806451612903,0.028571428569246313,0.014285714287010002,0.08571428571728631,0.7540983606557377
00,0,0.013938918377169781,0.02013456597302407,0.0,0.014285714287010002,0.014285714282236309,0.07142857143027632,0.7049180327868853
00,0,0.01903954944930523,0.022782459323155983,0.03225806451612903,0.028985507244201025,0.014492753624521952,0.07246376811776688,0.5737704918032787
00,0,0.01732133991725384,0.01904310934415969,0.0,0.02816901408245211,0.014084507043579284,0.08450704225206279,0.5737704918032787
00,0,0.03307499893432594,0.028733221822761352,0.04838709677419355,0.04347826087114442,0.028985507244201025,0.1739130434797348,0.6229508196721312
00,0,0.017270727561164302,0.019983772374011628,0.016129032258064516,0.01388888889024254,0.01388888888560145,0.08333333333681416,0.4918032786885246
00,0,0.023161319746121786,0.022393428266897924,0.04838709677419355,0.02857142857176955,0.014285714287078198,0.1,0.4918032786885246
00,0,0.035580600502441655,0.021268973222890578,0.03225806451612903,0.04347826087114442,0.014492753624521952,0.15942028985521284,0.4098360655737705
00,0,0.030878339550438824,0.030618197261097435,0.0967741935483871,0.028169014087158568,0.014084507043579284,0.15492957746525274,0.5573770491803278
00,0,0.028453078640530805,0.029751849847227962,0.0967741935483871,0.01388888889024254,0.01388888888560145,0.16666666666898722,0.5573770491803278
00,0,0.04629313626335407,0.03127107473441713,0.16129032258064516,0.04999999999976132,0.028571428569246313,0.22857142856829157,0.47540983606557374
00,0,0.03368408705161747,0.034219298305702445,0.08064516129032258,0.028571428574156395,0.014285714287078198,0.1857142857176955,0.45901639344262296
00,0,0.017499575971503315,0.025869522534246393,0.03225806451612903,0.028985507244201025,0.014492753624521952,0.11594202899133274,0.639344262295082
00,0,0.02000801840875954,0.031896113160537115,0.03225806451612903,0.014285714287010002,0.014285714282236309,0.15714285714278894,0.7704918032786885
00,0,0.015999728782294265,0.023469522745638263,0.016129032258064516,0.02816901408009888,0.014084507038872826,0.07042253521318996,0.6065573770491803
00,0,0.019137049595871695,0.025700437784774415,0.016129032258064516,0.020547945205165924,0.013698630133725607,0.08219178082524121,0.7868852459016393
00,0,0.024190240531486606,0.02654049527951787,0.0967741935483871,0.027777777778035615,0.01388888889017808,0.11111111111678355,0.6557377049180327
00,0,0.01687351745747869,0.01685175920559933,0.0,0.028571428569382704,0.014285714282304504,0.0714285714306173,0.5409836065573771
00,0,0.021824725757068803,0.027612181546904885,0.0967741935483871,0.02816901408480534,0.014084507043579284,0.09859154929564207,0.7868852459016393
00,0,0.02324807445693506,0.03201667589876293,0.08064516129032258,0.02816901408245211,0.014084507043579284,0.12676056338280065,0.7377049180327869
00,0,0.0194685962970745,0.01661268438383284,0.016129032258064516,0.020833333332946576,0.01388888888553699,0.09722222222196439,0.5573770491803278
00,0,0.0307338575040974,0.03126211264057492,0.11290322580645161,0.028169014087158568,0.014084507043579284,0.15492957746525274,0.5409836065573771
00,0,0.01312175606074995,0.017672681378558708,0.0,0.014492753624521952,0.014492753619679074,0.05797101449324493,0.5901639344262295
00,0,0.025810940748662296,0.02600666542065785,0.08064516129032258,0.02777777778048508,0.01388888889024254,0.13888888889314321,0.47540983606557374
00,0,0.013109635187653573,0.018725226731023698,0.016129032258064516,0.020547945205071864,0.0136986301336629,0.05479452054838414,0.6229508196721312
00,0,0.013662267986699462,0.01898313968206916,0.0,0.01388888889017808,0.01388888889017808,0.05555555556071232,0.5901639344262295
00,0,0.018222706425709227,0.024011280157846482,0.06451612903225806,0.027397260274317485,0.01369863013830312,0.0821917808206637,0.6557377049180327
00,0,0.02353654626277856,0.020045971754138834,0.016129032258064516,0.02777777778048508,0.01388888889024254,0.0972222222224156,0.5245901639344263
00,0,0.019170342155788403,0.020729266713237455,0.03225806451612903,0.028169014087158568,0.014084507043579284,0.09859154929564207,0.5737704918032787
00,0,0.015303193616179966,0.0189126166545679,0.016129032258064516,0.01388888889017808,0.01388888888553699,0.06944444444624931,0.639344262295082
00,0,0.017910607006072294,0.021911752250013218,0.016129032258064516,0.02816901408480534,0.014084507043579284,0.08450704225206279,0.6229508196721312
00,0,0.014521916220753531,0.020550584765387934,0.016129032258064516,0.014084507043579284,0.014084507043579284,0.08450704225206279,0.5901639344262295
00,0,0.014749987239857865,0.024340298448429006,0.016129032258064516,0.028169014077745653,0.014084507038872826,0.056338028174317135,0.6557377049180327
00,0,0.012534788548450311,0.018685149261590026,0.0,0.014084507043579284,0.014084507038872826,0.056338028174317135,0.639344262295082
00,0,0.013859922748190435,0.01918430814219225,0.0,0.014285714287078198,0.014285714282304504,0.0571428571435391,0.7868852459016393
00,0,0.02065111326353567,0.022001574461847605,0.0,0.028985507249043904,0.014492753624521952,0.08695652174228884,0.4426229508196721
00,0,0.01337838846475167,0.015418295988614515,0.016129032258064516,0.014084507045932513,0.014084507038872826,0.07042253521318996,0.5737704918032787
00,0,0.017281273843187346,0.014169128118046562,0.0,0.02816901408245211,0.014084507038872826,0.07042253521318996,0.4918032786885246
00,0,0.016256552149816184,0.021973135722315046,0.03225806451612903,0.014084507043512997,0.014084507038806537,0.08450704225166505,0.5573770491803278
00,0,0.014953660276096414,0.019241353470944758,0.0,0.02777777777584399,0.01388888888560145,0.05555555556097016,0.639344262295082
00,0,0.06273544863250906,0.10340695708151317,0.06451612903225806,0.020833333332946576,0.01388888889017808,0.6527777777780356,0.6885245901639344
00,0,0.0290213171982961,0.03137293903485667,0.03225806451612903,0.03521126760659498,0.014084507043579284,0.15492957746525274,0.5737704918032787
00,0,0.02143500265709278,0.02397006832225127,0.03225806451612903,0.027397260271903316,0.013698630138240415,0.10958904109676829,0.5901639344262295
00,0,0.021668931019145684,0.021617861112755467,0.04838709677419355,0.02777777778035616,0.01388888889017808,0.09722222222660548,0.5081967213114754
00,0,0.020135865729024968,0.02382507763177105,0.06451612903225806,0.01369863014281793,0.013698630138240415,0.08219178082486497,0.6885245901639344
00,0,0.0231395032788621,0.029517740941948468,0.12903225806451613,0.027397260272028726,0.013698630133725607,0.10958904110184745,0.7377049180327869
00,0,0.018193364752686153,0.02434807647919624,0.03225806451612903,0.020833333332946576,0.01388888889017808,0.0833333333364274,0.6065573770491803
00,0,0.01943544438414046,0.02020911273804041,0.016129032258064516,0.020547945205165924,0.013698630133725607,0.0958904109543893,0.5737704918032787
00,0,0.016805127851380223,0.018607577546809723,0.0,0.027397260272028726,0.013698630133725607,0.0821917808206637,0.7213114754098361
00,0,0.01535621686572973,0.021324181035431575,0.04838709677419355,0.01369863013830312,0.013698630133725607,0.0821917808206637,0.6229508196721312
00,0,0.011765336644754808,0.018676892911075438,0.0,0.014084507043579284,0.014084507038872826,0.04225352113073785,0.5245901639344263
00,0,0.020505458038363355,0.023657711817728126,0.016129032258064516,0.027397260272028726,0.013698630133725607,0.10958904109269242,0.6557377049180327
00,0,0.018959155107516702,0.029368926015586758,0.0967741935483871,0.027397260272028726,0.013698630133725607,0.09589041096354432,0.7213114754098361
00,0,0.012893450318000344,0.018783506710785543,0.0,0.013888888894819172,0.01388888888553699,0.05555555555607123,0.7049180327868853
00,0,0.01697643350017668,0.01982994962599516,0.0,0.02777777778035616,0.01388888889017808,0.0833333333317863,0.6721311475409836
00,0,0.013532021138343574,0.018449518488010012,0.0,0.01388888889017808,0.01388888888553699,0.06944444444160822,0.639344262295082
00,0,0.013480287653223535,0.018789434174679764,0.0,0.013698630138240415,0.0136986301336629,0.05479452054838414,0.7049180327868853
00,0,0.013275156443551045,0.0191342325465048,0.0,0.01388888889017808,0.01388888889017808,0.05555555555607123,0.6065573770491803
00,0,0.015840876581280177,0.015438266108479473,0.0,0.014285714287010002,0.014285714282236309,0.08571428571251263,0.6065573770491803
00,0,0.010309482594834938,0.013766224228492911,0.0,0.014084507043512997,4.70645830662915e-12,0.05633802816934552,0.5573770491803278
00,0,0.019067810251254647,0.02243470582848047,0.0,0.0352112676017228,0.014084507043512997,0.08450704225166505,0.7704918032786885
00,0,0.013266659317902182,0.018593227688236288,0.016129032258064516,0.021126760563015698,0.014084507043579284,0.07042253521318996,0.639344262295082
00,0,0.06549949311932793,0.10305535864434379,0.04838709677419355,0.028169014087158568,0.014084507043579284,0.6338028168998838,0.5737704918032787
00,0,0.03367428087250274,0.02075597228245271,0.0,0.04347826087135498,0.0289855072443414,0.13043478261164348,0.5081967213114754
00,0,0.07149126032289087,0.10242895826851971,0.08064516129032258,0.031746031743758556,0.01587301587453133,0.6031746031738454,0.7377049180327869
00,0,0.04487086706972008,0.015913820414966157,0.0,0.07971014492760642,0.04347826086872298,0.14492753623553375,0.45901639344262296
00,0,0.04881368708874628,0.02498564486303322,0.06451612903225806,0.08571428571489947,0.028571428574020005,0.17142857142502527,0.5901639344262295
00,0,0.02251451811564633,0.01909502143281056,0.0,0.029850746271485415,0.014925373135742707,0.0895522388094688,0.5409836065573771
00,0,0.04608020095303338,0.017226820026024957,0.0,0.0821917808206637,0.02739726027660624,0.1506849315076018,0.4918032786885246
00,0,0.019023451897735008,0.022921786755775247,0.016129032258064516,0.027027027024952265,0.013513513510218305,0.08108108107937245,0.5081967213114754
00,0,0.012387340289430875,0.018483682025796297,0.0,0.013513513514794984,0.013513513510279327,0.05405405405014862,0.7540983606557377
00,0,0.014127399568674903,0.018883750088495816,0.0,0.013698630138240415,0.0136986301336629,0.06849315068204705,0.6885245901639344
00,0,0.015541014359109508,0.01872172735066096,0.0,0.02702702702507431,0.013513513514794984,0.06756756756945927,0.6229508196721312
00,0,0.0152299402100826,0.01868297369359372,0.0,0.013513513514794984,0.013513513510279327,0.06756756756945927,0.5901639344262295
00,0,0.013234683151173493,0.017422643341121587,0.0,0.013513513517052812,0.013513513510279327,0.0675675675649436,0.5573770491803278
00,0,0.01455560679788869,0.02130722660362152,0.016129032258064516,0.027397260271903316,0.0136986301336629,0.06849315068662457,0.7377049180327869
00,0,0.014489444948876678,0.01774587339019333,0.0,0.013698630138240415,0.0136986301336629,0.05479452054838414,0.7540983606557377
00,0,0.01541977830526695,0.02401231330459331,0.0,0.027027027029589968,0.013513513514794984,0.05405405405466428,0.8360655737704918
00,0,0.020437173804395036,0.019987950292349812,0.0,0.027397260271903316,0.013698630138240415,0.08219178082486497,0.639344262295082
00,0,0.01503478123686473,0.021564281115514207,0.0,0.027027027029589968,0.013513513514794984,0.054054054059179936,0.7868852459016393
00,0,0.013834289746347496,0.01923319231027618,0.0,0.01369863013830312,0.013698630133725607,0.06849315068693809,0.7213114754098361
00,0,0.019685371145544174,0.020100026830079484,0.0,0.027777777775715072,0.01388888889017808,0.09722222222196439,0.5573770491803278
00,0,0.014965161561356886,0.01603118080538638,0.0,0.014084507043579284,0.014084507038872826,0.08450704225676925,0.5245901639344263
00,0,0.01936220517797073,0.014403138996225726,0.0,0.02777777778035616,0.01388888889017808,0.0833333333317863,0.5245901639344263
00,0,0.021152434093280718,0.019983686086687838,0.0,0.04166666666125206,0.01388888889017808,0.0833333333317863,0.6885245901639344
00,0,0.01280566308656203,0.01690609189549207,0.0,0.013513513512537155,0.013513513510279327,0.06756756756945927,0.5737704918032787
00,0,0.017500101166049626,0.015997755144192678,0.0,0.020547945205071864,0.0136986301336629,0.08219178082486497,0.6557377049180327
00,0,0.01679031247327349,0.01964620290553242,0.0,0.027027027024952265,0.013513513510218305,0.0675675675646385,0.639344262295082
00,0,0.019269385250331807,0.017386446163576447,0.0,0.027027027024952265,0.013513513514733962,0.08108108107937245,0.6065573770491803
00,0,0.016132203276516113,0.022409887072230787,0.0,0.013333333334580859,0.013333333334580859,0.06666666667290429,0.7704918032786885
00,0,0.01786151494359589,0.02242899183425366,0.03225806451612903,0.013333333334580859,0.01333333333012541,0.0800000000030297,0.6065573770491803
00,0,0.03330835060573535,0.020048988978021307,0.016129032258064516,0.040540540544201885,0.02702702702043661,0.14864864864852662,0.7049180327868853
00,0,0.017277869865238524,0.01963917804910926,0.0,0.026666666669161718,0.013333333334580859,0.053333333338323435,0.6065573770491803
00,0,0.026844303827719282,0.018678958440115592,0.016129032258064516,0.027027027029589968,0.013513513514794984,0.10810810810932855,0.6557377049180327
00,0,0.021525629950685268,0.019747381719902847,0.016129032258064516,0.027777777778035615,0.01388888889017808,0.12499999999767945,0.6065573770491803
00,0,0.02426556508967326,0.029826698444520874,0.04838709677419355,0.013698630142880634,0.013698630133725607,0.1643835616459049,0.7049180327868853
00,0,0.04212467821723456,0.0301342999417334,0.06451612903225806,0.06428571428199763,0.028571428569246313,0.22857142857306526,0.5737704918032787
00,0,0.06179140637820166,0.1048867154442174,0.04838709677419355,0.015625000004079084,0.015624999996247243,0.6562500000042423,0.4426229508196721
00,0,0.03824998344856102,0.023768990862347107,0.016129032258064516,0.06428571428469135,0.028571428574156395,0.1571428571435391,0.6721311475409836
00,0,0.02185695141298734,0.021706339135411597,0.0,0.03999999999928713,0.013333333334580859,0.09333333333315512,0.6229508196721312
00,0,0.013508418458445873,0.01518654402657898,0.0,0.020270270269934648,0.013513513510279327,0.054054054059179936,0.639344262295082
00,0,0.02112314798593846,0.021279446663517776,0.016129032258064516,0.02702702702507431,0.013513513514794984,0.10810810810932855,0.6229508196721312
00,0,0.03724266155261085,0.0251502558677122,0.03225806451612903,0.05479452054838414,0.027397260271903316,0.1369863013686716,0.639344262295082
00,0,0.033726212025015814,0.03609353290623578,0.04838709677419355,0.02739726027660624,0.013698630133725607,0.21917808219453988,0.5573770491803278
00,0,0.035415172521685176,0.04306509713514207,0.0967741935483871,0.02739726027648083,0.013698630138240415,0.20547945205071866,0.5409836065573771
00,0,0.024702175923947103,0.03184127208059462,0.06451612903225806,0.027397260272028726,0.013698630133725607,0.17808219178420803,0.6229508196721312
00,0,0.015970289289297224,0.019534111398316605,0.016129032258064516,0.020270270274450303,0.013513513514794984,0.06756756756945927,0.6065573770491803
00,0,0.026508775026939154,0.0337207455073019,0.06451612903225806,0.027397260271903316,0.013698630138240415,0.19178082191705575,0.6229508196721312
00,0,0.020924684420427386,0.02530952840311182,0.06451612903225806,0.027397260271903316,0.013698630138240415,0.09589041095852788,0.6229508196721312
00,0,0.022068783867733026,0.02597402800975921,0.06451612903225806,0.027397260272028726,0.013698630133725607,0.13698630136929865,0.7049180327868853
00,0,0.012122607905277537,0.017473446982768245,0.03225806451612903,0.013888888887857536,4.641090830163965e-12,0.06944444444624931,0.5737704918032787
00,0,0.017973266537511353,0.02409049750940356,0.04838709677419355,0.027397260271903316,0.013698630138240415,0.08219178081570995,0.7540983606557377
00,0,0.013293249309002254,0.01759499677280228,0.0,0.01369863013830312,0.013698630133725607,0.05479452054863497,0.7049180327868853
00,0,0.021434386531525438,0.021475330955284772,0.016129032258064516,0.013698630140591878,0.013698630133725607,0.13698630136929865,0.5901639344262295
00,0,0.019978925056284142,0.016677599564566624,0.0,0.029850746266497974,0.014925373135742707,0.07462686567871353,0.6557377049180327
00,0,0.018565279648923606,0.021297389628934935,0.0,0.029850746266497974,0.014925373135742707,0.07462686567372609,0.639344262295082
00,0,0.028955957249990866,0.03272185916978485,0.0967741935483871,0.034246575343469046,0.01369863013830312,0.1643835616459049,0.6721311475409836
00,0,0.01894955681238182,0.020657381947378352,0.0,0.027027027024952265,0.013513513514733962,0.0675675675736698,0.7049180327868853
00,0,0.013810505640108306,0.021095895826999358,0.03225806451612903,0.013698630138240415,0.0136986301336629,0.06849315068662457,0.7049180327868853
00,0,0.01903663281078542,0.031183335817777377,0.11290322580645161,0.027027027029589968,0.013513513514794984,0.08108108108425424,0.7704918032786885
00,0,0.018638817683211496,0.019357402522618097,0.016129032258064516,0.02702702702507431,0.013513513514794984,0.08108108108425424,0.639344262295082
00,0,0.02496584211251209,0.03710168651369065,0.1935483870967742,0.040540540539686226,0.013513513519249617,0.12162162161905868,0.7868852459016393
00,0,0.013811201724837177,0.017804906684066986,0.0,0.02702702702507431,0.013513513514794984,0.05405405405466428,0.5081967213114754
00,0,0.015898915261563756,0.020339874988992816,0.04838709677419355,0.013698630138240415,0.0136986301336629,0.08219178082028746,0.6229508196721312
00,0,0.013307381622395502,0.01785611009896037,0.0,0.01369863014281793,0.0136986301336629,0.05479452055296166,0.639344262295082
00,0,0.019916451275375835,0.0145968677853931,0.0,0.027397260272028726,0.013698630133725607,0.08219178082524121,0.5245901639344263
00,0,0.018243851136669296,0.020464265727201714,0.016129032258064516,0.02702702702507431,0.013513513514794984,0.08108108108425424,0.5737704918032787
00,0,0.01304094342279972,0.016884244696463557,0.016129032258064516,0.01351351351931064,0.013513513510279327,0.054054054059179936,0.6065573770491803
00,0,0.016136802921509,0.023883071726071663,0.03225806451612903,0.01351351351931064,0.013513513510279327,0.08108108107973859,0.7704918032786885
00,0,0.01677877931418624,0.025778295029310304,0.0967741935483871,0.02702702702507431,0.013513513514794984,0.06756756757397492,0.7377049180327869
00,0,0.019665820472958756,0.025215254522808928,0.08064516129032258,0.027027027024952265,0.013513513514733962,0.09459459459410642,0.5409836065573771
00,0,0.022048887587456826,0.019572093325405982,0.016129032258064516,0.027027027029589968,0.013513513514794984,0.09459459459453357,0.639344262295082
00,0,0.061371465610036174,0.10425899284797446,0.04838709677419355,0.02739726027648083,0.013698630138240415,0.6575342465760322,0.6885245901639344
00,0,0.015682578511280038,0.019185067706545135,0.0,0.01351351351931064,0.013513513514794984,0.08108108107973859,0.7540983606557377
00,0,0.015581181297193271,0.019695414926530833,0.0,0.01388888889017808,0.01388888889017808,0.06944444444624931,0.6557377049180327
00,0,0.022754352223475834,0.01887966534912955,0.0,0.04109589041014373,0.027397260271903316,0.09589041095852788,0.5573770491803278
00,0,0.03364595896070846,0.02177586380042408,0.03225806451612903,0.042253521126031396,0.02816901408245211,0.14084507042167346,0.45901639344262296
00,0,0.060685571362485015,0.09067527954263206,0.06451612903225806,0.01388888889017808,0.01388888888553699,0.6249999999976794,0.5081967213114754
00,0,0.02435604866194353,0.03129598842551006,0.14516129032258066,0.02777777778035616,0.01388888889017808,0.12500000000232053,0.6065573770491803
00,0,0.023484859896799437,0.026534673098642346,0.04838709677419355,0.03378378378472963,0.013513513514794984,0.12162162162412354,0.5901639344262295
00,0,0.016743763016350943,0.02621934185502255,0.06451612903225806,0.027027027024952265,0.013513513510218305,0.0810810810838881,0.8032786885245902
00,0,0.017591664808566165,0.020785483763175835,0.016129032258064516,0.027397260272028726,0.01369863013830312,0.06849315068693809,0.45901639344262296
00,0,0.022240890673929595,0.01719533847820233,0.0,0.04166666666589315,0.01388888889017808,0.0833333333364274,0.639344262295082
00,0,0.020508718089654276,0.02512364491662698,0.04838709677419355,0.027397260271903316,0.013698630138240415,0.10958904109219078,0.5573770491803278
00,0,0.028017645246343734,0.022225659910318885,0.04838709677419355,0.02777777778035616,0.01388888889017808,0.12500000000232053,0.6065573770491803
00,0,0.0185496968745225,0.017341723167482764,0.0,0.02777777778035616,0.01388888889017808,0.0694444444508904,0.6721311475409836
00,0,0.026092264954604077,0.020826625819713035,0.03225806451612903,0.03472222221864472,0.013888888894883631,0.11111111111265815,0.5573770491803278
00,0,0.02224933754126143,0.019715912467249234,0.03225806451612903,0.02739726027648083,0.013698630138240415,0.10958904109219078,0.5081967213114754
00,0,0.02200433534122638,0.025478323989699493,0.0967741935483871,0.040540540539686226,0.013513513519249617,0.0810810810838881,0.7049180327868853
00,0,0.025829565272884346,0.0260872979135396,0.06451612903225806,0.03947368420977423,0.013157894738057016,0.1184210526337195,0.7868852459016393
00,0,0.01855362248189757,0.020204565659416737,0.016129032258064516,0.019999999999643563,0.013333333334580859,0.07999999999857425,0.639344262295082
00,0,0.01645319322526927,0.023568199507973397,0.04838709677419355,0.02631578947171721,0.013157894738057016,0.07894736842394527,0.6229508196721312
00,0,0.016112155415006223,0.022200366872371615,0.016129032258064516,0.013333333334580859,0.013333333334580859,0.06666666666844885,0.6065573770491803
00,0,0.016543952751173006,0.02023838123958192,0.03225806451612903,0.019999999999643563,0.01333333333012541,0.07999999999857425,0.47540983606557374
00,0,0.02266045494537182,0.024303921880165905,0.06451612903225806,0.02631578947171721,0.013157894738057016,0.10526315789126567,0.5901639344262295
00,0,0.03090837970775468,0.0400598458811799,0.24193548387096775,0.04109589041014373,0.01369863014281793,0.12328767123500871,0.6229508196721312
00,0,0.03136439905657173,0.04311547625091997,0.22580645161290322,0.03424657534102352,0.013698630138240415,0.15068493151148954,0.6885245901639344
00,0,0.0329997406629419,0.04475173486734322,0.25806451612903225,0.026666666666933993,0.013333333334580859,0.13333333334135314,0.5409836065573771
00,0,0.03243961658902956,0.04700947054930053,0.16129032258064516,0.02702702702507431,0.013513513514794984,0.1756756756787878,0.6721311475409836
00,0,0.020105815746443642,0.030645241300784762,0.11290322580645161,0.013333333334580859,0.013333333334580859,0.10666666666773597,0.6065573770491803
00,0,0.024419064136067013,0.02615671533052676,0.12903225806451613,0.02666666666470627,0.013333333334580859,0.12000000000231684,0.5737704918032787
00,0,0.022548273359221323,0.030961217082600953,0.11290322580645161,0.026666666666933993,0.013333333334580859,0.11999999999786139,0.5901639344262295
00,0,0.025987251179838394,0.035061799065746684,0.22580645161290322,0.046666666664349835,0.02666666666470627,0.10666666666773597,0.7377049180327869
00,0,0.03770625925178163,0.033625864270923185,0.20967741935483872,0.05999999999893069,0.02666666666470627,0.1466666666670231,0.6065573770491803
00,0,0.06284431368159502,0.03490586238549437,0.12903225806451613,0.11267605633922136,0.05633802816961068,0.22535211268314917,0.7049180327868853
00,0,0.021869628410005778,0.025315328161632573,0.04838709677419355,0.022727272729343957,0.015151515152895973,0.09090909091231282,0.5573770491803278
00,0,0.036820298241521734,0.022557924272326765,0.03225806451612903,0.0661764705870429,0.029411764708628465,0.11764705882468567,0.6065573770491803
00,0,0.019107691358631322,0.022065430483839226,0.0,0.030303030300728936,0.015151515152895973,0.07575757575941686,0.6557377049180327
00,0,0.015357092923466882,0.01637351423589315,0.0,0.014705882354314232,0.014705882349400137,0.07352941176665707,0.45901639344262296
00,0,0.02241686279019458,0.019581100776003012,0.0,0.029411764703714368,0.014705882354314232,0.10294117647037143,0.6557377049180327
00,0,0.022351009099674832,0.023324613268468727,0.016129032258064516,0.030303030303413865,0.015151515152972684,0.09090909090771009,0.6721311475409836
00,0,0.017179129457849232,0.02155050672535039,0.0,0.031249999997715713,0.015624999996247243,0.07812500000212112,0.6557377049180327
00,0,0.028437322988765796,0.017305838432309414,0.0,0.03225806451925851,0.016129032259629254,0.11290322580662547,0.5245901639344263
00,0,0.01964119228699289,0.024261160890347046,0.03225806451612903,0.03225806451369499,0.016129032259542323,0.11290322580601696,0.6557377049180327
00,0,0.024008366498832038,0.01782122435947982,0.0,0.03333333333370462,0.016666666668244637,0.11666666667214315,0.5409836065573771
00,0,0.09622006238931363,0.17339022547434474,0.08064516129032258,0.048387096768108456,0.016129032259629254,0.774193548386749,0.5737704918032787
00,0,0.02757454548650172,0.02579163543300673,0.06451612903225806,0.03030303030088236,0.015151515152972684,0.15151515151960082,0.5573770491803278
00,0,0.06882535958161526,0.035181565043623304,0.016129032258064516,0.09285714285884775,0.028571428574156395,0.24285714286123458,0.5737704918032787
00,0,0.026179996876574865,0.018908841942029617,0.0,0.03174603174906266,0.01587301587453133,0.09523809524188388,0.5901639344262295
00,0,0.0405012630316813,0.022261329555320293,0.016129032258064516,0.07462686566873865,0.029850746266497974,0.17910447761395015,0.5901639344262295
00,0,0.016418502812137893,0.018340040812188835,0.0,0.028571428569382704,0.014285714282304504,0.071428571435391,0.6065573770491803
00,0,0.015043551720587295,0.01776590592489653,0.0,0.02816901408245211,0.014084507038872826,0.0704225352084835,0.5245901639344263
00,0,0.020655680925023526,0.018086418896867885,0.0,0.029411764708628465,0.014705882354314232,0.0882352941160572,0.5409836065573771
00,0,0.05152352642688878,0.02131628911596168,0.03225806451612903,0.10937499999983684,0.04687499999918418,0.14062500000277378,0.5081967213114754
00,0,0.03088077656767823,0.014485134538373062,0.0,0.04687499999918418,0.031249999997715713,0.12500000000130532,0.5409836065573771
00,0,0.026654556663939656,0.020153672546621874,0.0,0.0428571428564609,0.014285714287078198,0.0857142857176955,0.6229508196721312
00,0,0.03800396384208854,0.01750965845220081,0.0,0.053030303030072896,0.030303030300728936,0.1515151515137707,0.5409836065573771
00,0,0.035309374913484876,0.018296020359465173,0.0,0.0555555555529035,0.031746031743758556,0.14285714286017379,0.5245901639344263
00,0,0.022064036062926336,0.022871904367336073,0.016129032258064516,0.032786885248954956,0.016393442624477478,0.09836065573590885,0.6065573770491803
00,0,0.051167334032370254,0.02674337981620348,0.06451612903225806,0.04918032787343243,0.032786885248954956,0.2622950819642496,0.6065573770491803
00,0,0.03287905623594437,0.01884640482120823,0.016129032258064516,0.04838709677323732,0.016129032259542323,0.12903225807094895,0.45901639344262296
00,0,0.017383577713834312,0.015361583748957545,0.0,0.02941176470125732,0.014705882349400137,0.07352941176665707,0.39344262295081966
00,0,0.026700947390520625,0.020850599655953244,0.0,0.028169014087158568,0.014084507043579284,0.09859154929564207,0.6557377049180327
00,0,0.055862907065508526,0.019212289109802976,0.0,0.08208955223910373,0.029850746271485415,0.20895522388543558,0.4098360655737705
00,0,0.019170213925425113,0.023633023978110648,0.08064516129032258,0.03448275861810698,0.017241379306172814,0.08620689655390948,0.6721311475409836
00,0,0.0354924178693223,0.01942948693891233,0.0,0.056451612903312735,0.03225806451386885,0.12903225806625473,0.6885245901639344
00,0,0.035732623635001015,0.0269596229530531,0.0967741935483871,0.0441176470580286,0.014705882354314232,0.1323529411789999,0.5901639344262295
00,0,0.020667981445701915,0.02107002303759689,0.0,0.028169014087158568,0.014084507043579284,0.07042253521318996,0.7049180327868853
00,0,0.0629989194301069,0.10393345977938233,0.04838709677419355,0.042253521126031396,0.014084507043579284,0.6478873239434632,0.5245901639344263
00,0,0.013330441440222936,0.01613305686196167,0.0,0.028571428569382704,0.014285714282304504,0.0571428571435391,0.6885245901639344
00,0,0.014910437750741901,0.021835602399568294,0.0,0.028985507244201025,0.014492753619679074,0.05797101449324493,0.6229508196721312
00,0,0.016811411344876136,0.01945438494616151,0.0,0.0289855072443414,0.014492753619749261,0.07246376811811782,0.4918032786885246
00,0,0.019444645578965348,0.020891085211667906,0.016129032258064516,0.0289855072443414,0.014492753619749261,0.08695652173786708,0.6065573770491803
00,0,0.012077486928904334,0.015765717301359308,0.0,0.014925373135668267,0.014925373130680826,0.05970149253768563,0.3770491803278688
00,0,0.01613183824738271,0.02299953597545595,0.0,0.014705882356771281,0.014705882354314232,0.07352941176665707,0.6557377049180327
00,0,0.02010031474473714,0.020630822318588735,0.016129032258064516,0.014925373135668267,0.014925373130680826,0.10447761194469043,0.4426229508196721
00,0,0.019613815822632875,0.02322392700504066,0.03225806451612903,0.014705882354314232,0.014705882349400137,0.1323529411789999,0.47540983606557374
00,0,0.018290447290820834,0.019190724404828455,0.016129032258064516,0.01515151515795898,0.015151515147832964,0.1060606060652088,0.639344262295082
00,0,0.012226182589290369,0.017644957609836115,0.0,0.01538461538603902,5.140900611872462e-12,0.04615384615811705,0.5081967213114754
00,0,0.014030298150087292,0.013972751329778113,0.0,0.01562500000146847,0.015624999996247243,0.06250000000065266,0.47540983606557374
00,0,0.014201480908591605,0.01713873135027586,0.0,0.01538461538603902,0.015384615380898118,0.07692307692505419,0.6557377049180327
00,0,0.015440417043681367,0.014603429604701767,0.0,0.030769230766937137,0.015384615380898118,0.06153846154415608,0.5737704918032787
00,0,0.016668375951249842,0.018800336301063095,0.0,0.01538461538603902,0.015384615380898118,0.09230769231109322,0.5737704918032787
00,0,0.019751168864978613,0.018778030396528377,0.0,0.03076923077207804,0.01538461538603902,0.07692307692505419,0.6229508196721312
00,0,0.027554591296623347,0.020016097427288996,0.0,0.030769230772236218,0.015384615380977209,0.10769230769768587,0.5409836065573771
00,0,0.02135587220336996,0.0171088300846035,0.0,0.023076923076606713,0.015384615380977209,0.09230769230642685,0.5573770491803278
00,0,0.016413751523707176,0.020420506292275094,0.0,0.01538461538603902,0.01538461538603902,0.061538461539015175,0.7377049180327869
00,0,0.015197965123874146,0.017600391322291367,0.0,0.015384615386118109,0.015384615380977209,0.061538461544472435,0.5901639344262295
00,0,0.01795526188458139,0.022290151162306666,0.0,0.015384615380898118,0.015384615380898118,0.09230769230595232,0.6721311475409836
00,0,0.01452155412523789,0.015200205178754374,0.0,0.014925373135742707,0.014925373130755266,0.05970149253798339,0.5573770491803278
00,0,0.01393940611442028,0.021997531164057945,0.0,0.015151515152895973,0.015151515147832964,0.06060606060652088,0.819672131147541
00,0,0.010836126028513107,0.018003848809816196,0.0,0.014925373135742707,4.987440892126173e-12,0.04477611940224068,0.639344262295082
00,0,0.010927495428758033,0.014766628896532645,0.0,0.014925373130755266,0.014925373130755266,0.04477611940224068,0.639344262295082
00,0,0.012021553798174942,0.018138258751631775,0.0,0.014925373135742707,0.014925373130755266,0.04477611940722812,0.5901639344262295
00,0,0.013901865314751686,0.020176877995630445,0.03225806451612903,0.015151515152972684,0.015151515147909677,0.060606060611890736,0.7377049180327869
00,0,0.013903721522349933,0.020369650714831242,0.0,0.01538461538603902,0.015384615380898118,0.04615384615811705,0.6557377049180327
00,0,0.011267759113133798,0.01858575577442419,0.0,0.01538461538603902,0.015384615380898118,0.04615384615811705,0.6229508196721312
00,0,0.02412292064084848,0.0200939860366071,0.0,0.04545454545132354,0.015151515152972684,0.07575757575980041,0.7540983606557377
00,0,0.014268900331499825,0.021427466956164723,0.0,0.014925373138236428,0.014925373130755266,0.05970149253798339,0.6721311475409836
00,0,0.01571792797268973,0.01836473736980263,0.0,0.029850746266497974,0.014925373130755266,0.07462686567372609,0.6721311475409836
00,0,0.01849256707150105,0.02023118023216024,0.0,0.029850746271485415,0.014925373135742707,0.05970149253798339,0.6885245901639344
00,0,0.027265022433942552,0.0221842571382657,0.0,0.029850746271485415,0.014925373135742707,0.11940298507596678,0.6065573770491803
00,0,0.021666022754131153,0.016728256730590602,0.0,0.031746031743758556,0.01587301587453133,0.07936507937265666,0.5245901639344263
00,0,0.018387186897440892,0.0209251279141044,0.0,0.029850746264004253,0.014925373130755266,0.07462686567372609,0.7049180327868853
00,0,0.02209227318467566,0.025515585487803468,0.0,0.028985507249043904,0.014492753619679074,0.08695652173744596,0.7213114754098361
00,0,0.012245296043730453,0.014779049643976212,0.0,0.014492753619679074,0.014492753619679074,0.05797101449808781,0.5409836065573771
00,0,0.014074115259746568,0.01717477275281966,0.0,0.014705882359156063,0.014705882339499678,0.07352941176629574,0.6557377049180327
00,0,0.015386607177826897,0.02013399378807267,0.0,0.0220588235291227,0.014705882349472402,0.058823529417546,0.6885245901639344
00,0,0.016446949200566902,0.0177311854592514,0.0,0.014925373135742707,0.014925373130755266,0.07462686567372609,0.5573770491803278
00,0,0.015717107093217057,0.018215931223478622,0.0,0.015151515152895973,0.015151515147832964,0.06060606060145787,0.6885245901639344
00,0,0.022305261281157233,0.02524270320930592,0.04838709677419355,0.030303030300728936,0.015151515147832964,0.09090909091737583,0.7213114754098361
00,0,0.04424668660405069,0.021898559462064777,0.0,0.09836065573590885,0.049180327867954426,0.1475409836148193,0.6065573770491803
00,0,0.017390184518909963,0.01882717808425744,0.0,0.017543859656527983,0.017543859644803123,0.07017543861438706,0.5901639344262295
00,0,0.012272693861847537,0.01958944204094057,0.0,0.01754385964500882,1.1724861044704946e-11,0.05263157894675132,0.8524590163934426
00,0,0.017005711005587357,0.02033792361827432,0.016129032258064516,0.01724137930637148,0.01724137929484877,0.06896551724853134,0.7049180327868853
00,0,0.0190062615246192,0.01929101538445272,0.0,0.03448275861234563,0.017241379306172814,0.08620689655390948,0.639344262295082
00,0,0.012889046771141369,0.01627081687485661,0.0,0.016393442619179077,0.01639344260822306,0.049180327868493245,0.4262295081967213
00,0,0.027319452578571886,0.01856890630293024,0.0,0.046874999993962954,0.031249999992494486,0.09374999999836836,0.6229508196721312
00,0,0.045060528092517746,0.02030221245513898,0.03225806451612903,0.07692307692544964,0.03076923078251802,0.15384615385089928,0.5737704918032787
00,0,0.015636215981417883,0.01990297633435501,0.016129032258064516,0.016949152538341093,0.016949152538341093,0.06779661017601918,0.6229508196721312
00,0,0.018767706252240904,0.022173733277703465,0.06451612903225806,0.033898305076682185,0.016949152538341093,0.10169491525270137,0.6065573770491803
00,0,0.019227620961095888,0.020205336156599116,0.016129032258064516,0.015873015879919627,0.01587301586931142,0.07936507937838172,0.45901639344262296
00,0,0.08902623877447131,0.1613899368401339,0.0967741935483871,0.0454545454485619,0.01515151515795898,0.6969696969623326,0.7704918032786885
00,0,0.05139621568961759,0.02248503111877989,0.03225806451612903,0.07377049179645363,0.032786885248954956,0.19672131148277372,0.5737704918032787
00,0,0.0367995930163695,0.019889843537452163,0.0,0.05303030302754139,0.030303030305791945,0.15151515150870767,0.5081967213114754
00,0,0.02046781516986697,0.018708500525442477,0.0,0.0220588235291227,0.014705882349472402,0.1029411764757914,0.6721311475409836
00,0,0.0307524338947384,0.014225246228146393,0.0,0.04477611940224068,0.014925373140730148,0.13432835821669692,0.36065573770491804
00,0,0.017108925062924996,0.01570786818012158,0.0,0.02898550723935815,0.014492753619679074,0.07246376811776688,0.5245901639344263
00,0,0.020066485554717826,0.016357450279060513,0.0,0.028169014087025993,0.014084507048219454,0.08450704226107797,0.6229508196721312
00,0,0.02657575891492523,0.02356970405863332,0.03225806451612903,0.04999999999283946,0.028571428564609008,0.09999999999522631,0.639344262295082
00,0,0.022054639274228842,0.023265802483729756,0.03225806451612903,0.014705882359156063,0.01470588234932787,0.10294117647477967,0.6721311475409836
00,0,0.02209698175165557,0.027506173607376713,0.08064516129032258,0.028571428574156395,0.014285714282304504,0.08571428572246918,0.5901639344262295
00,0,0.016826429485376684,0.019294891492343834,0.03225806451612903,0.028571428564609008,0.014285714282304504,0.07142857144016468,0.5409836065573771
00,0,0.03075148453956836,0.027663933513355388,0.06451612903225806,0.0441176470582454,0.014705882359300594,0.1176470588252638,0.5901639344262295
00,0,0.029529378464558356,0.02456470872778641,0.04838709677419355,0.04285714284691351,0.014285714291851891,0.12857142857893009,0.5901639344262295
00,0,0.02962016135401326,0.031448629460898,0.11290322580645161,0.04861111111330274,0.02777777778035616,0.11111111112142465,0.6557377049180327
00,0,0.01713669392108602,0.022586717133300037,0.03225806451612903,0.01388888888553699,0.01388888888553699,0.08333333334106849,0.6557377049180327
00,0,0.0167351646249317,0.022122989681820453,0.04838709677419355,0.013888888894819172,0.01388888888553699,0.09722222222660548,0.6229508196721312
00,0,0.018202043455628463,0.02136250433929256,0.016129032258064516,0.014084507048219454,0.014084507038806537,0.08450704225166505,0.5573770491803278
00,0,0.03561866456438409,0.02066599901021215,0.03225806451612903,0.05555555555607123,0.02777777778035616,0.12500000000696163,0.47540983606557374
00,0,0.028558448483998994,0.021626238961663036,0.016129032258064516,0.04285714285605173,0.0142857142917155,0.10000000000381895,0.5409836065573771
00,0,0.020381488884788492,0.01427795315712454,0.0,0.028169014087025993,0.014084507038806537,0.08450704225166505,0.45901639344262296
00,0,0.011334661278462561,0.016300574246528064,0.0,0.014492753619679074,0.014492753619679074,0.04347826087840873,0.639344262295082
00,0,0.024827992309602597,0.021639504709976356,0.03225806451612903,0.029411764708773,0.014705882349472402,0.1323529411845644,0.5737704918032787
00,0,0.01647283930636003,0.011617363159671141,0.0,0.02941176469865574,0.01470588234932787,0.058823529426796056,0.5081967213114754
00,0,0.026881151950478216,0.0204135795684098,0.0,0.04285714286600829,0.028571428564609008,0.1142857142870782,0.6229508196721312
00,0,0.01849478199036403,0.023287851744838294,0.016129032258064516,0.027777777775715072,0.01388888888553699,0.0833333333317863,0.7213114754098361
00,0,0.02138072018945528,0.02540597200811588,0.04838709677419355,0.02777777778035616,0.01388888888553699,0.11111111111214246,0.6885245901639344
00,0,0.01860350609480905,0.017752162165149413,0.0,0.028571428569382704,0.014285714282304504,0.07142857144016468,0.5245901639344263
00,0,0.022055970029668345,0.014700589961278319,0.0,0.028985507249043904,0.014492753619679074,0.08695652174713171,0.5901639344262295
00,0,0.01861459995685668,0.02942505433341935,0.12903225806451613,0.014492753639050584,0.014492753619679074,0.08695652173744596,0.6885245901639344
00,0,0.01796128412700983,0.016798591773727993,0.0,0.028169014087025993,0.014084507038806537,0.08450704225166505,0.5409836065573771
00,0,0.011470653540123018,0.0159275318220689,0.0,0.014285714291851891,0.014285714282304504,0.04285714286600829,0.6229508196721312
00,0,0.013192121492489058,0.014554522231538214,0.0,0.028169014082319532,0.014084507038806537,0.056338028174051986,0.5081967213114754
00,0,0.015531750663584911,0.018693535275903072,0.0,0.021126760562916264,0.014084507038806537,0.07042253521285852,0.5737704918032787
00,1,0.17115972792328307,0.22449179969005534,0.7903225806451613,0.22580645162403026,0.1290322580554754,0.7741935483975284,0.5409836065573771
00,1,0.20101249424864462,0.2775931272357868,0.8064516129032258,0.2343750000088108,0.12499999999216815,0.9062500000006527,0.5573770491803278
00,1,0.11090480866418834,0.143603606332844,0.6129032258064516,0.1285714285801576,0.05714285712976359,0.5428571428664175,0.639344262295082
00,1,0.16723857238479073,0.2510909941651389,0.7419354838709677,0.1617647058835092,0.058823529417546,1.0882352941361473,0.6557377049180327
00,1,0.11595365706138015,0.15867454112384582,0.6451612903225806,0.10294117645411156,0.058823529396733354,0.8235294117508308,0.6229508196721312
00,1,0.2579352204657396,0.37958258825601476,0.8709677419354839,0.29032258064550903,0.09677419356646852,1.3548387096502972,0.639344262295082
00,1,0.19887434594423634,0.28179286490211297,0.8870967741935484,0.279411764708773,0.1470588235340368,0.941176470582454,0.7049180327868853
00,0,0.05364365903033749,0.09102396752695821,0.04838709677419355,0.014925373130755266,0.014925373130755266,0.5820895522391037,0.47540983606557374
00,0,0.02626684809623703,0.026745924529871075,0.08064516129032258,0.04411764705781181,0.014705882359156063,0.10294117647477967,0.5409836065573771
00,0,0.013258416866695311,0.01665950999090333,0.0,0.007246376814682415,9.685754775986544e-12,0.05797101449808781,0.5245901639344263
00,0,0.07178163596950299,0.1204689924855994,0.04838709677419355,0.02898550723935815,0.014492753619679074,0.7536231883976554,0.639344262295082
00,1,0.15271936635689018,0.2130053403758136,0.7741935483870968,0.22580645162403026,0.09677419354699622,0.6451612903204943,0.6557377049180327
00,1,0.17629061373766605,0.27110061757556553,0.8225806451612904,0.2794117646989448,0.1470588235143804,0.7941176470680736,0.6557377049180327
00,1,0.12187116738751651,0.17599839303266998,0.7419354838709677,0.1617647058835092,0.058823529417546,0.7058823529515827,0.5409836065573771
00,0,0.014724381719043996,0.014981371132612123,0.0,0.014925373140730148,0.014925373130755266,0.05970149254297083,0.5409836065573771
00,0,0.0220764588335374,0.016802460327077443,0.0,0.04411764705781181,0.014705882359156063,0.07352941176629574,0.6065573770491803
00,0,0.016521428552704345,0.015834269160076655,0.0,0.014492753624521952,0.014492753619679074,0.07246376811776688,0.639344262295082
00,1,0.1847965103290313,0.25935305448241225,0.8225806451612904,0.21875000001240041,0.12499999999216815,0.8125000000013053,0.6229508196721312
00,1,0.20540742185119754,0.27919632359949875,0.8548387096774194,0.2500000000052212,0.12499999999216815,1.0312500000137057,0.7213114754098361
00,0,0.05575765778840971,0.09599494289226818,0.04838709677419355,0.015384615391100828,0.015384615370537227,0.6153846153869881,0.6721311475409836
00,0,0.01255427064907672,0.011790945676911614,0.0,0.01515151515795898,0.015151515147832964,0.045454545463750926,0.45901639344262296
00,0,0.018222289433286576,0.014720217623594609,0.0,0.030303030295665927,0.015151515147832964,0.06060606061158389,0.5737704918032787
00,0,0.012100178698927308,0.014382377958722561,0.0,0.01538461539125901,1.0281801223797783e-11,0.061538461544472435,0.5737704918032787
00,0,0.01618648367452869,0.014291483006316157,0.0,0.023076923081510343,0.015384615380819026,0.06153846153355791,0.5901639344262295
00,0,0.01763233462285211,0.019238751079865384,0.0,0.015384615391100828,0.015384615380819026,0.07692307692465875,0.639344262295082
00,0,0.0874878327210213,0.1462865860581539,0.0967741935483871,0.03125000000293694,0.015624999996247243,0.6562500000094634,0.6721311475409836
00,1,0.1847850304143606,0.24880239095091675,0.7903225806451613,0.20000000000668317,0.09999999999777227,0.7999999999821782,0.5573770491803278
00,1,0.16603086001873368,0.16453367131922436,0.6129032258064516,0.28124999999804207,0.15624999998498898,0.7499999999947787,0.45901639344262296
00,1,0.1624961847399572,0.24049375514140187,0.8709677419354839,0.16129032258551323,0.09677419354699622,0.7741935483975284,0.7540983606557377
00,1,0.20218716037468362,0.28235382508726126,0.9032258064516129,0.27419354837596976,0.1290322580554754,0.9354838709830416,0.6885245901639344
00,1,0.19805031480275898,0.2675093663085993,0.8709677419354839,0.28125000001305306,0.12500000001044245,0.8749999999895576,0.6721311475409836
00,1,0.19854947344418716,0.25335201170527005,0.7741935483870968,0.3387096774252661,0.1290322580554754,1.0322580645300379,0.639344262295082
00,1,0.1747755052270813,0.2348761429320881,0.8709677419354839,0.24999999999477876,0.12499999999216815,0.7500000000365485,0.6721311475409836
00,1,0.2049604620811287,0.2744683511324355,0.8709677419354839,0.24999999999477876,0.12499999999216815,1.0937500000202323,0.6721311475409836
00,1,0.20935418284897625,0.2816743402132736,0.8387096774193549,0.21212121211016555,0.12121212120291575,1.1818181818144997,0.6721311475409836
00,1,0.2274343180035596,0.308568388939237,0.8225806451612904,0.3281249999804204,0.12500000001044245,1.0312499999712832,0.6065573770491803
00,1,0.21646280287233555,0.31786322025440944,0.9032258064516129,0.2941176470622923,0.14705882353114616,1.2352941176065897,0.6557377049180327
00,1,0.19757148367742,0.2848425263760584,0.9193548387096774,0.2432432432583768,0.13513513513952874,0.8378378378578532,0.639344262295082
00,1,0.18763561629929026,0.2606565310627542,0.8548387096774194,0.21250000000877167,0.10000000001002475,0.750000000008354,0.7213114754098361
00,1,0.25238192784404606,0.3837490579194986,0.8548387096774194,0.2656249999960841,0.12499999998955755,1.2187500000078317,0.639344262295082
00,1,0.211268246621182,0.2874796347856012,0.8387096774193549,0.24285714286368965,0.11428571429553445,0.971428571416569,0.6557377049180327
00,1,0.20007757239072008,0.27918656586318585,0.9032258064516129,0.2424242424260835,0.12121212120291575,1.2424242424260836,0.6885245901639344
00,1,0.2054720960096477,0.27756389659914465,0.8064516129032258,0.22368421052400167,0.1052631579039933,1.0263157894672046,0.5573770491803278
00,1,0.15763024473358364,0.22136865686902413,0.7419354838709677,0.2058823529475359,0.08823529413441279,0.7352941176360743,0.5409836065573771
00,1,0.20419978264228839,0.28774276965687706,0.9193548387096774,0.23611111110982191,0.11111111112142465,1.0,0.6885245901639344
00,1,0.19655331083106667,0.27837547940465557,0.8709677419354839,0.2424242424159575,0.12121212120291575,1.060606060611584,0.639344262295082
00,1,0.20052684101844886,0.2993295896919068,0.8225806451612904,0.2205882353010552,0.1176470588154356,0.9705882353207116,0.6721311475409836
00,1,0.19512451962371183,0.3123150872312151,0.8225806451612904,0.27777777777571505,0.11111111112142465,0.8888888888785753,0.7213114754098361
00,1,0.18743706127637116,0.28214909047954717,0.8870967741935484,0.2121212121304176,0.12121212120291575,0.8181818181855004,0.7049180327868853
00,1,0.1864433265973293,0.2465681361420602,0.7580645161290323,0.18571428570992118,0.08571428569464537,0.8857142857213781,0.4918032786885246
00,1,0.19177465236362481,0.25473061746327313,0.8548387096774194,0.23529411764590258,0.14705882351148977,0.9705882352819769,0.6229508196721312
00,1,0.18892569148012764,0.24840341354421394,0.9032258064516129,0.2424242424159575,0.12121212120291575,0.8484848485014184,0.6065573770491803
00,1,0.19261912686927976,0.29810700681707214,0.8387096774193549,0.2121212121304176,0.12121212120291575,0.999999999979748,0.639344262295082
00,1,0.19506106371924975,0.27307850958967733,0.8870967741935484,0.27777777777571505,0.13888888889249862,0.8611111111075014,0.639344262295082
00,1,0.2050683083485257,0.2857233969229094,0.8709677419354839,0.27142857142802584,0.1428571428598707,1.1142857142955345,0.7213114754098361
00,1,0.17703910272410428,0.27833333329139326,0.8225806451612904,0.2121212121304176,0.09090909092750185,0.8484848484811663,0.6885245901639344
00,1,0.19415853914291914,0.28739998372348635,0.8548387096774194,0.19696969698258462,0.09090909090724981,1.1515151515188338,0.7049180327868853
00,1,0.25004188287375106,0.3766328384913815,0.9032258064516129,0.2656249999960841,0.12500000001044245,1.3437499999973894,0.7213114754098361
00,1,0.19738273875773135,0.2815714779073685,0.8387096774193549,0.25,0.117647058835092,0.8235294117670184,0.5409836065573771
00,1,0.18218852899138963,0.25662249491599226,0.8548387096774194,0.2121212121304176,0.09090909092750185,0.9090909090927501,0.5901639344262295
00,1,0.18995491744431225,0.2912795212390663,0.8387096774193549,0.22727272726812453,0.09090909090724981,0.8484848484811663,0.6557377049180327
00,1,0.1529407662170217,0.2280542986454839,0.7419354838709677,0.128571428589705,0.05714285716795313,0.8285714285916145,0.6721311475409836
00,1,0.10308245067587359,0.16751087964891537,0.6774193548387096,0.08108108108010473,0.0540540540413614,0.6486486486408378,0.7868852459016393
00,1,0.1676484679421768,0.21730689528221736,0.7741935483870968,0.17187500000913714,0.09374999999738938,0.9062499999817257,0.6065573770491803
00,1,0.23220258710041328,0.3562575098931271,0.8870967741935484,0.3225806451748514,0.12903225805269367,1.290322580613171,0.6885245901639344
00,1,0.20712975921404822,0.32320532271265356,0.8548387096774194,0.28787878787970844,0.1515151515188337,0.9393939393884161,0.6885245901639344
00,1,0.19302440863534912,0.2606752956533566,0.9354838709677419,0.3142857142900788,0.17142857140838552,0.7714285714618508,0.6721311475409836
00,1,0.1299491380968182,0.16249588375774227,0.7096774193548387,0.14285714286941806,0.08571428571210346,0.6285714285681552,0.6065573770491803
00,1,0.1265799770892623,0.20216451292447357,0.7096774193548387,0.11428571427643969,0.05714285714776723,0.8571428571210346,0.6065573770491803
00,1,0.12785945846972427,0.1835832461789257,0.7580645161290323,0.11428571427643969,0.05714285714776723,0.7428571428636896,0.5573770491803278
00,1,0.12310616171684186,0.16339547912359936,0.8387096774193549,0.11428571427862194,0.057142857148858354,0.6571428571641342,0.5573770491803278
00,1,0.13664386470024673,0.19468849079734,0.6774193548387096,0.11428571427643969,0.05714285714776723,0.7142857142802587,0.5245901639344263
00,1,0.12951341822025245,0.18657679605635094,0.7741935483870968,0.1029411764757914,0.058823529417546,0.823529411747362,0.639344262295082
00,1,0.14046645750018402,0.18998049696892136,0.7419354838709677,0.1285714285801576,0.05714285716795313,0.6571428571641342,0.5737704918032787
00,1,0.1828629006069802,0.2653116935913466,0.8225806451612904,0.12121212122316778,0.06060606061158389,1.060606060611584,0.5409836065573771
00,1,0.17158179399330153,0.22182907068511915,0.7903225806451613,0.21875000002871675,0.0937500000182743,0.9062499999817257,0.5737704918032787
00,1,0.15485598074702026,0.21986771292593077,0.7903225806451613,0.12499999999216815,0.06250000000652653,0.8750000000078318,0.6885245901639344
00,1,0.20440558476967896,0.27668796039639926,0.8709677419354839,0.2727272727420015,0.12121212122316778,0.9090909090927501,0.6229508196721312
00,1,0.18571606425975223,0.25229165093060824,0.8709677419354839,0.23437499999836836,0.09374999999934734,0.7500000000156637,0.6557377049180327
00,1,0.22420552070332023,0.32872288764812235,0.8225806451612904,0.22727272729297932,0.12121212122562257,1.181818181838434,0.6229508196721312
00,1,0.19162483071998743,0.26985573545557395,0.9032258064516129,0.2368421052751913,0.131578947371198,0.7368421052751913,0.6557377049180327
00,1,0.20431875634710472,0.25846984706513904,0.8387096774193549,0.24285714287323704,0.1428571428407759,1.2571428571172156,0.7377049180327869
00,1,0.1995004281870709,0.31532662113834564,0.8387096774193549,0.27272727273187547,0.12121212122316778,0.9090909090927501,0.7049180327868853
00,1,0.21707490340305133,0.3079835869484082,0.7741935483870968,0.28787878787970844,0.12121212122316778,0.9090909090927501,0.6229508196721312
00,1,0.1645078742628014,0.23584464202172864,0.7741935483870968,0.2424242424058315,0.12121212120291575,0.6969696969825846,0.5901639344262295
00,1,0.20822176210328874,0.3200166119238612,0.7741935483870968,0.18749999997780978,0.09374999997846244,1.0937499999993474,0.639344262295082
00,1,0.1902414771322004,0.2880364142957488,0.8387096774193549,0.21212121211016555,0.09090909090724981,1.0,0.6229508196721312
00,1,0.22804110510870343,0.31382179455028986,0.9032258064516129,0.3636363636492513,0.15151515149858166,1.0909090909072499,0.7213114754098361
00,1,0.18881130955840333,0.2585690093714509,0.7419354838709677,0.28787878787970844,0.09090909090724981,0.7575757575536645,0.5081967213114754
00,1,0.2044854375727415,0.30655461009978147,0.8387096774193549,0.27142857142802584,0.11428571427643969,0.9714285714356637,0.7049180327868853
00,1,0.21939525487084785,0.31636757993034614,0.9838709677419355,0.38888888887857537,0.1944444444346466,0.8611111111075014,0.6557377049180327
00,1,0.18655638777195607,0.27346775471302714,0.8387096774193549,0.21875000000783185,0.09374999999738938,0.75,0.6557377049180327
00,1,0.1714966325075274,0.2512991021312933,0.8225806451612904,0.2058823529417546,0.1176470588154356,0.8529411764856196,0.639344262295082
00,1,0.1944982868181481,0.2596525545029619,0.7258064516129032,0.2727272727272727,0.12121212122562257,0.9393939394074408,0.5409836065573771
00,1,0.18423524547206915,0.2810374607427339,0.8870967741935484,0.24285714285414225,0.11428571429553445,0.9142857142878965,0.7540983606557377
00,1,0.1847874469534614,0.2697476441176383,0.8548387096774194,0.22727272728837658,0.12121212120291575,0.8484848485014184,0.7049180327868853
00,1,0.16975764973339463,0.2661491697088227,0.8709677419354839,0.2424242424260835,0.12121212122316778,0.8787878787768322,0.6557377049180327
00,1,0.19741622819712962,0.2715953600302639,0.8870967741935484,0.2571428571412204,0.14285714284350373,0.8000000000076379,0.6885245901639344
00,1,0.21142732264270178,0.28139359597005265,0.8709677419354839,0.3235294117670184,0.14705882355369318,1.0882352941164908,0.5737704918032787
00,1,0.19436392150896042,0.2886691529632496,0.9354838709677419,0.2638888888808959,0.13888888887393427,0.805555555546789,0.6721311475409836
00,1,0.19332780031814534,0.26498251579011173,0.8225806451612904,0.27272727272174946,0.15151515149858166,0.9393939393884161,0.639344262295082
00,1,0.2064875200701378,0.2715691568776935,0.8870967741935484,0.2575757575840425,0.12121212122316778,0.969696969684082,0.6557377049180327
00,1,0.18297043022355172,0.2719475617326245,0.8387096774193549,0.19696969698657366,0.12121212120537053,0.7878787878855386,0.6557377049180327
00,1,0.1668120170408968,0.23490263265016778,0.7741935483870968,0.18750000000913714,0.09375000002023226,0.6875000000300221,0.6229508196721312
00,1,0.19689141447924036,0.2812998685449725,0.8870967741935484,0.2352941176603558,0.117647058835092,0.9705882353010552,0.5901639344262295
00,1,0.2172381755928028,0.29910149410379644,0.8709677419354839,0.2424242424159575,0.12121212122316778,0.969696969684082,0.6065573770491803
00,1,0.22460580781094158,0.3026477114170237,0.8548387096774194,0.22727272727825054,0.12121212120291575,1.060606060611584,0.639344262295082
00,1,0.17263417855335456,0.2900994110893115,0.8548387096774194,0.21428571429389776,0.11428571425952717,0.8000000000076379,0.7540983606557377
00,1,0.1524587854024663,0.2274980890923847,0.8064516129032258,0.1617647058835092,0.0882352941164908,0.6764705882329816,0.6557377049180327
00,1,0.2169883896841415,0.3301622538719112,0.8387096774193549,0.32352941177048716,0.17647058820985645,1.1470588235114898,0.6885245901639344
00,1,0.19012536619242243,0.2720724535251427,0.7258064516129032,0.19696969698258462,0.09090909092750185,0.9090909090927501,0.4426229508196721
00,1,0.23276372666691686,0.32251923367279234,0.8387096774193549,0.308823529417546,0.1470588235340368,1.029411764698945,0.6557377049180327
00,1,0.1921623422398002,0.26665990781955096,0.8709677419354839,0.22727272726812453,0.12121212120291575,0.8181818181855004,0.6885245901639344
00,1,0.17726117559181406,0.23869911731324203,0.8387096774193549,0.2647058823494724,0.1176470588154356,0.8823529411845644,0.5409836065573771
00,1,0.20888635489267068,0.2778981167443324,0.9193548387096774,0.25000000000464107,0.13888888889249862,1.083333333313222,0.6229508196721312
00,1,0.14763196597510658,0.20913830534890718,0.8387096774193549,0.16666666665654065,0.06060606061158389,0.7878787878695824,0.7213114754098361
00,1,0.19672611822240232,0.2916355748884052,0.8387096774193549,0.22727272727825054,0.12121212120291575,1.030303030295666,0.7049180327868853
00,1,0.18891342550531437,0.28255159638228367,0.8870967741935484,0.2205882353010552,0.1176470588154356,0.8529411764856196,0.6229508196721312
00,1,0.1391845854738169,0.2135421877885355,0.8064516129032258,0.18750000000913714,0.09374999999934734,0.562500000016969,0.6229508196721312
00,1,0.15459094427842052,0.238235803707951,0.8548387096774194,0.22857142856242674,0.11428571427643969,0.6857142856968277,0.6721311475409836
00,1,0.1806135694101339,0.27567086869740515,0.8870967741935484,0.21428571427480297,0.11428571425952717,0.857142857175591,0.6229508196721312
00,1,0.23154000525167504,0.34965911944583483,0.8870967741935484,0.3142857142805314,0.17142857140838552,1.1714285714656698,0.6885245901639344
00,1,0.21589302095117208,0.27746943233275334,0.8870967741935484,0.2647058823639256,0.14705882351148977,1.0294117646787102,0.5737704918032787
00,1,0.18317905807579687,0.2775053935718494,0.8225806451612904,0.20312500001599001,0.09375000002023226,0.9374999999934734,0.639344262295082
00,1,0.15391404409554332,0.2444209279950733,0.8548387096774194,0.1969696969522066,0.09090909090724981,0.6969696969623326,0.6557377049180327
00,1,0.18418117909530096,0.2661276879180863,0.8870967741935484,0.2424242424260835,0.12121212122316778,0.9090909090724981,0.639344262295082
00,1,0.22329546973433417,0.32130436360907944,0.8387096774193549,0.28124999999216815,0.12500000001044245,1.1562499999817257,0.6557377049180327
00,1,0.17607514739540295,0.257069819613077,0.7903225806451613,0.20000000001145687,0.11428571427862194,0.9142857142862598,0.6721311475409836
00,1,0.21858855534948918,0.3077834024790954,0.7258064516129032,0.17187499999869468,0.09374999999738938,1.1874999999947788,0.5409836065573771
00,1,0.19725283766038726,0.26370120509923156,0.8064516129032258,0.18181818181449963,0.09090909090724981,0.999999999979748,0.5409836065573771
00,1,0.17318694459699333,0.2447958204170173,0.8870967741935484,0.2424242424058315,0.09090909090724981,0.8484848485014184,0.5901639344262295
00,1,0.1395328167985152,0.21545228572648553,0.6935483870967742,0.1515151515188337,0.09090909090724981,0.7878787878695824,0.7377049180327869
00,1,0.17958151505059375,0.24244219547207813,0.8870967741935484,0.3142857142745302,0.14285714287896545,0.7142857142802587,0.639344262295082
00,1,0.18663238926570258,0.23168654895844443,0.8709677419354839,0.2571428571412204,0.14285714284350373,0.9714285714351182,0.6721311475409836
00,1,0.18005020328194696,0.24370190807208167,0.7741935483870968,0.2352941176505276,0.1176470588154356,0.7941176470680736,0.5901639344262295
00,1,0.1810640966872002,0.23548998742098495,0.8064516129032258,0.1969696969724586,0.09090909090724981,0.8787878787768322,0.6721311475409836
00,1,0.1663995532548247,0.2582200502647063,0.8548387096774194,0.18181818181449963,0.09090909090724981,0.7575757575941685,0.7049180327868853
00,1,0.2062656069381627,0.2884107506824379,0.8064516129032258,0.27272727273187547,0.15151515149858166,1.1818181818144997,0.5573770491803278
00,1,0.17859181025675416,0.22918285879330227,0.8709677419354839,0.2424242424159575,0.12121212120291575,0.8787878787768322,0.7049180327868853
00,1,0.19528127783204025,0.26838391925458854,0.8387096774193549,0.27272727273187547,0.12121212122316778,1.1212121212029158,0.639344262295082
00,1,0.2006722738775561,0.28219956338211566,0.9193548387096774,0.27272727273187547,0.1515151515188337,0.8484848484811663,0.6721311475409836
00,1,0.1382090497268325,0.22191405754690033,0.7419354838709677,0.10937499999347347,0.06249999998433632,0.7812499999921682,0.6557377049180327
00,1,0.16630356648429295,0.2753530023027047,0.7903225806451613,0.18181818182462564,0.09090909090724981,0.8181818182057524,0.8032786885245902
00,1,0.14255002953720827,0.21750909675648972,0.7903225806451613,0.16666666666666666,0.09090909090724981,0.6969696969623326,0.6721311475409836
00,1,0.16753780454603023,0.24647588782636448,0.7258064516129032,0.1969696969623326,0.09090909090724981,0.969696969684082,0.6885245901639344
00,1,0.1756574731970419,0.24890653788238998,0.8064516129032258,0.12121212122316778,0.06060606061158389,1.030303030275414,0.7049180327868853
00,1,0.19507506324835858,0.2842181838862412,0.9032258064516129,0.25,0.1176470588154356,1.0,0.639344262295082
00,1,0.18087461089965032,0.2640813826146483,0.6612903225806451,0.12121212121304176,0.06060606061158389,1.030303030315918,0.7540983606557377
00,1,0.1744185231673814,0.24217272281411795,0.8225806451612904,0.1969696969724586,0.09090909090724981,0.8787878787768322,0.6229508196721312
00,1,0.14384781515286305,0.21483105776648587,0.7258064516129032,0.1764705882329816,0.0882352941164908,0.6176470588154356,0.6721311475409836
00,1,0.17931512772461752,0.25745688740037465,0.8387096774193549,0.22727272727825054,0.09090909090724981,0.8484848484811663,0.6229508196721312
00,1,0.16874067421571268,0.25064700131770923,0.8387096774193549,0.22727272727825054,0.09090909092750185,0.8181818181855004,0.7704918032786885
00,1,0.2178009648411768,0.3234738949991896,0.8225806451612904,0.13636363637100074,0.06060606061158389,1.030303030295666,0.6229508196721312
00,1,0.19108139884119388,0.2649512995829641,0.9032258064516129,0.25,0.12499999998955755,0.999999999979115,0.6229508196721312
00,1,0.1688523194632968,0.24762912136799378,0.7903225806451613,0.18181818183475165,0.09090909090724981,0.7272727272782505,0.5901639344262295
00,1,0.21256833709701634,0.2989079397079896,0.8709677419354839,0.3030303030336784,0.15151515150165015,0.9090909091111611,0.6229508196721312
00,1,0.17857290119244684,0.24598890407270843,0.8225806451612904,0.28125000000261063,0.1562499999817257,0.7812499999921682,0.639344262295082
00,1,0.12557167703106617,0.1797156168909049,0.7580645161290323,0.1515151515188337,0.09090909090724981,0.6363636363710007,0.5737704918032787
00,1,0.11819945442493827,0.16891433551941318,0.6935483870967742,0.09090909091737583,0.060606060591331855,0.7878787878898345,0.639344262295082
00,1,0.15377180479659353,0.225383794802785,0.8225806451612904,0.17741935483975282,0.06451612903851701,0.7741935483975284,0.6721311475409836
00,1,0.21473695758463665,0.3279834892301753,0.8548387096774194,0.28124999999804207,0.12500000001305306,0.9375000000143584,0.6885245901639344
00,1,0.16453291585796523,0.2235979282347933,0.8064516129032258,0.18750000000913714,0.09374999999934734,1.0000000000208848,0.6229508196721312
00,1,0.24769646090959704,0.3433459880331024,0.9032258064516129,0.22727272726812453,0.09090909090724981,1.2727272727217493,0.6229508196721312
00,1,0.14434488674732573,0.19297283290963116,0.7096774193548387,0.19696969696632163,0.09090909092934295,0.6363636363636364,0.6229508196721312
00,1,0.20085345663381268,0.29972728090584716,0.8548387096774194,0.2343750000088108,0.12499999999216815,1.0625000000065266,0.6721311475409836
00,1,0.22883263960243883,0.33341973546481124,0.9354838709677419,0.28787878788983445,0.1515151515188337,1.0909090909072499,0.6885245901639344
00,1,0.15962547030159596,0.22810284098981146,0.8225806451612904,0.18181818181449963,0.09090909090724981,0.8181818181855004,0.6721311475409836
00,1,0.18592249634627905,0.2834507661439679,0.8387096774193549,0.28124999999804207,0.12500000001305306,0.9062500000215375,0.6721311475409836
00,1,0.17503925499827638,0.27239114221391336,0.8225806451612904,0.27272727272174946,0.12121212122316778,0.7272727272782505,0.7377049180327869
00,1,0.1656328853088081,0.2425109508350252,0.8064516129032258,0.20967741935901135,0.09677419356855484,0.8064516129060075,0.5901639344262295
00,1,0.15657380388494055,0.2540219900973062,0.8548387096774194,0.2187499999915155,0.09375000002023226,0.6875000000300221,0.639344262295082
00,1,0.14804545307810774,0.22106909122076868,0.7741935483870968,0.2343750000088108,0.12499999999216815,0.6875000000091371,0.6229508196721312
00,1,0.1410973745441522,0.18848882114747864,0.7419354838709677,0.1515151515188337,0.06060606061158389,0.6969696969623326,0.5737704918032787
00,1,0.1470426214318954,0.2155179552817341,0.8709677419354839,0.18181818181818182,0.09090909090909091,0.6666666667004201,0.7049180327868853
00,1,0.16284800159858992,0.25039075531025884,0.7419354838709677,0.12500000001305306,0.06250000002741145,0.9687500000071791,0.639344262295082
