record,cls,y,qrs_width_norm,template_corr,template_corr_abs,pos_neg_ratio,slope_norm,energy_conc,seg_skew,seg_kurt
800,N,0,31.25,0.9869137485552758,0.9850096763088174,0.6680851063829786,0.42105263157894735,0.8600404330593461,2.7006891305964347,11.786111614341044
800,N,0,31.25,0.9663447980517922,0.9684342009558061,0.6589063345966433,0.4368600682593857,0.8453163144073107,2.6758242013719227,11.779179518729148
800,N,0,31.25,0.969402818137338,0.9721944939174857,0.6544391281233386,0.4266666666666667,0.8454834716307047,2.6838739390601134,11.772156750275725
800,N,0,31.25,0.968663288046164,0.9611196239267007,0.6632653061224489,0.43243243243243246,0.8665159035507651,2.7919030835973913,12.515083838824307
800,N,0,23.4375,0.9910497616105838,0.9898908553224465,0.669218989280245,0.42809364548494994,0.8366428765657499,2.607727569658629,11.56978327244114
800,N,0,31.25,0.9903446068558741,0.9869035555021377,0.6969416126042632,0.40251572327044033,0.8655635866836372,2.671768176432723,11.267812742192467
800,N,0,31.25,0.9783290099499301,0.9797418246643099,0.6471149260848832,0.41025641025641024,0.8396545422715811,2.6137581780034314,11.35496152417843
800,N,0,31.25,0.9528178092790399,0.9397967201211562,0.6062500000000001,0.45714285714285713,0.8302180685358257,2.4646927855147576,11.483057480960195
800,N,0,31.25,0.9278956427907005,0.9323234856562193,0.5807644882860666,0.6037735849056604,0.7518646491123555,2.0010923837696275,10.264187929105496
800,N,0,23.4375,0.9266156913499884,0.9071015044679146,0.6174863387978142,0.4923076923076923,0.8393570059269422,2.488807135118756,11.336051785387102
800,N,0,23.4375,0.9910973361839196,0.990420304621135,0.6114864864864865,0.4846153846153846,0.7903960545139673,2.394981470920271,11.32058269962703
800,N,0,23.4375,0.9816022005612015,0.9777767297258643,0.6049261083743842,0.45390070921985826,0.7600265263982878,2.0510333349874887,10.228776338926018
800,N,0,23.4375,0.9678229881509952,0.9586361090991066,0.5766497461928933,0.4776119402985075,0.7604048924504426,2.1453163979761425,10.797478912732586
800,S,0,23.4375,0.9947467437845465,0.9944628295211038,0.6537440254912373,0.43537414965986404,0.8076286526021216,2.4628839359738355,11.606127342310428
800,N,0,31.25,0.9639396886600182,0.9552828650602491,0.6522633744855969,0.435374149659864,0.8407794539189855,2.5627484473275364,11.897190739717422
800,N,0,23.4375,0.9136627477774344,0.8901502800798107,0.5851423058369513,0.4475524475524476,0.8171209451009649,2.306713701929904,10.79494882409285
800,N,0,31.25,0.9617065218514826,0.9585884697439372,0.6257928118393234,0.44912280701754387,0.8416780354706686,2.7947994735711443,12.513201726761658
800,N,0,23.4375,0.9771161930667721,0.9848854284776429,0.678866587957497,0.5161290322580646,0.8316332326146716,2.6992921928591014,12.247325745472288
800,N,0,31.25,0.9223760966335746,0.9227536685556904,0.6167341430499325,0.5565217391304348,0.8178360006302471,2.4238712910474614,12.05315556691098
800,N,0,23.4375,0.9787921486487917,0.977630256228653,0.6284584980237155,0.4571428571428572,0.8437291416366308,2.710774378129344,12.013898552197045
800,N,0,23.4375,0.9860149772295734,0.9823790199274228,0.6698377168438724,0.4587813620071685,0.8584935405985583,2.89230187665235,12.839029602070772
800,N,0,23.4375,0.9866177944889393,0.9847885261557197,0.660500544069641,0.4491228070175438,0.8497788559923424,2.706768592482993,12.233186563260265
800,N,0,23.4375,0.9953674650940073,0.9944774470797294,0.6563608717688799,0.4266666666666668,0.8227331701949447,2.432652164399793,10.95805707529146
800,N,0,23.4375,0.9919900942148581,0.9905206369802186,0.6415185007208073,0.4076433121019108,0.8167403699717073,2.5310249266351743,11.472212790556922
800,N,0,31.25,0.946797762160499,0.9336548791667967,0.6595744680851063,0.49612403100775193,0.8476160580377385,2.561551542886477,11.404571246083039
800,N,0,31.25,0.9765966636858247,0.9773248424724655,0.6417649628658803,0.4,0.7837191364711795,2.243625696184075,10.64027689399347
800,N,0,23.4375,0.997808228023663,0.9973479740964724,0.6640584246218049,0.44755244755244755,0.8170107728516486,2.465363479513918,11.200198783843131
800,N,0,23.4375,0.9862261956329975,0.9813793466115487,0.5973829894313034,0.45070422535211274,0.7473181470494954,2.1412669139738307,10.682495471821584
800,N,0,31.25,0.9827015006323686,0.9838328179880612,0.6678200692041523,0.42524916943521596,0.8518496318718095,2.6938813653325893,11.611706289829302
800,N,0,31.25,0.9458199222691426,0.9432159096817787,0.601404741000878,0.4571428571428572,0.7904192473287467,2.284434779124081,10.203896130224988
800,N,0,31.25,0.9943249186861062,0.9930923645067652,0.6366013071895424,0.40251572327044033,0.8242894629650667,2.435746080513133,10.443828278965256
800,N,0,23.4375,0.9948310222825975,0.9949747352174122,0.6423196104471004,0.40506329113924056,0.8236086542004033,2.4182348015742128,10.410080020289312
800,N,0,23.4375,0.9939900221525354,0.9944485396934513,0.6362786348761101,0.4076433121019109,0.820349265035806,2.636096895540036,12.065896870432692
800,N,0,31.25,0.9673293994456965,0.9646342426887797,0.6383693045563549,0.4475524475524476,0.805023205604855,2.528572913207417,11.463049394789643
800,N,0,31.25,0.96888646542977,0.9697410921186278,0.6716562047320136,0.4129032258064516,0.8419862739686094,2.651239337909059,11.715604550840906
800,N,0,23.4375,0.9862844631362446,0.9836335694537309,0.6043200785468827,0.4353741496598641,0.7936287152487504,2.4679924531207162,11.283898845815848
800,N,0,31.25,0.9758830337471986,0.969910394994103,0.6891522333637192,0.4183006535947713,0.8412361375817035,2.5422607382295204,10.80595417256187
800,N,0,31.25,0.9912483537040749,0.9900862993188692,0.6395147313691507,0.4012539184952979,0.809577763100959,2.3647238812091858,10.515977161794405
800,N,0,23.4375,0.9939738344055205,0.9936693730422698,0.6517006802721088,0.419672131147541,0.7622733565452041,2.067633229031422,10.026241549670488
800,N,0,23.4375,0.9818159743215843,0.9831554427055113,0.6196600826825907,0.41290322580645167,0.8205366406486935,2.5501745444860946,11.24581845239634
800,N,0,31.25,0.9648750943643013,0.9645627123953442,0.6123963334788302,0.41025641025641024,0.7965853153779066,2.417598919149465,11.037066978678014
800,N,0,31.25,0.9415081346378221,0.9253061579319871,0.6068459657701711,0.47058823529411775,0.7834772446688086,2.0978196685267885,10.411963218095268
800,N,0,23.4375,0.9961014591126887,0.9953745175861727,0.6377575467177766,0.4102564102564103,0.8129814700915111,2.5243818722096427,11.44867844982957
800,N,0,23.4375,0.994744925745103,0.995364137160472,0.659919028340081,0.39506172839506176,0.8178871843572025,2.356352917655118,10.405833208797134
800,N,0,31.25,0.97879184015321,0.979706556928931,0.5948644793152638,0.40506329113924056,0.8281171379692062,2.648118074320874,11.531360779194445
800,N,0,31.25,0.9548481733418032,0.9557400791854882,0.667411712114439,0.40764331210191085,0.8089220299717657,2.3968879851703964,10.662140900409298
800,N,0,23.4375,0.9932361480111023,0.993063746227779,0.6592592592592592,0.4,0.7696910672087902,2.1147104422103937,10.119227099971782
800,N,0,31.25,0.9783267231406428,0.9807670146561579,0.6592659719075669,0.3855421686746988,0.824790596574783,2.4999621064913025,11.18893108029913
800,N,0,31.25,0.9785199129635394,0.9783401979562817,0.6107382550335569,0.39875389408099693,0.800054159478365,2.48081816054364,11.395302705495594
800,N,0,31.25,0.9704587306744226,0.9718952523453487,0.6659222867351496,0.3950617283950618,0.8251155688908474,2.5183296464445424,11.078864667420714
800,N,0,23.4375,0.9899339289825496,0.9921187459962959,0.6760502381983542,0.3914373088685016,0.8339711083877921,2.447204228281251,10.418326100637467
800,N,0,23.4375,0.9981490611177085,0.9974854032658554,0.674934036939314,0.4383561643835617,0.8405969663004146,2.664091927678342,11.861909721508539
800,N,0,23.4375,0.9869710994706061,0.9838758802241119,0.6585365853658536,0.45878136200716846,0.7907650935770688,2.3563806415002344,10.999908511605804
800,N,0,23.4375,0.9826702402765478,0.9813922423866068,0.666512274201019,0.4210526315789474,0.7924987789884973,2.370518045568638,10.889014296998067
800,N,0,23.4375,0.998288371965748,0.997946600681802,0.6551724137931034,0.4115755627009646,0.7973652910782838,2.330840373816971,10.76703983243175
800,N,0,31.25,0.9683808319262244,0.9599611323625233,0.6927199642697632,0.40764331210191085,0.8490784711980599,2.5450587793590875,11.02989603444641
800,N,0,31.25,0.9541619019024261,0.9555567306485809,0.6923076923076924,0.387878787878788,0.8282259979926502,2.409808970629613,10.66453960329314
800,N,0,31.25,0.9768695228223144,0.9729468880094162,0.6745379876796714,0.41693811074918574,0.86305024169495,2.682237870969337,11.628940749891994
800,N,0,23.4375,0.9883285424723918,0.9910937054427974,0.6790248857287964,0.4050632911392405,0.8534355509840054,2.663066449446063,11.545914009658663
800,N,0,23.4375,0.9947844897663575,0.9956328827962383,0.6605922551252847,0.4507042253521127,0.8487034985992573,2.709249552724159,12.006158619287087
800,N,0,23.4375,0.9952549366596076,0.9945741727061338,0.6694458067680236,0.39751552795031064,0.8564839124515393,2.7111569052854416,11.779674773116781
800,N,0,23.4375,0.9932525573537296,0.99250873037255,0.6678928008407776,0.4295302013422819,0.8658852450255623,2.8016594535220984,11.97136323262061
800,N,0,23.4375,0.9948392575005102,0.9927243029345224,0.6880829015544042,0.4475524475524476,0.8470437214419976,2.578163934968973,11.310484001002088
800,N,0,23.4375,0.9930187037098888,0.9915705193279801,0.6740890688259108,0.42105263157894735,0.8440424287537217,2.5929017083361314,11.41342551716188
800,N,0,23.4375,0.9937533934579094,0.9946016417725844,0.6472849591542528,0.40251572327044033,0.8405548181498375,2.558920717420349,10.984225900976574
800,N,0,31.25,0.962971553289072,0.96523924010579,0.6648806624452022,0.41025641025641024,0.8463200532047754,2.6681752646389203,11.69177515965809
800,N,0,31.25,0.9678812206922306,0.959350872228436,0.6225324987963409,0.42384105960264906,0.8298975923338509,2.542997861818853,11.680160957579838
800,N,0,31.25,0.9569846014111016,0.9573661432635046,0.6832540025962787,0.38554216867469887,0.858893795063838,2.699437365470657,11.608862637758667
800,N,0,23.4375,0.9960219861551148,0.9950342500302568,0.6390904692791486,0.40764331210191096,0.820031670890568,2.5383249590688384,11.617168095807312
800,N,0,31.25,0.9863730630038218,0.9888670980674739,0.6778824585015704,0.38323353293413176,0.8598191232541031,2.683540522184418,11.418567637470368
800,N,0,23.4375,0.9978991163807073,0.9974149595263933,0.6411270390509144,0.41558441558441556,0.8330971801604019,2.6134076912168256,11.543958706457099
800,N,0,23.4375,0.9915732559463845,0.9936492898573144,0.668328047122791,0.3855421686746988,0.8570036961932228,2.618911323385774,11.08975293738632
800,N,0,23.4375,0.9898481450070922,0.989773274714022,0.6882444329363023,0.4155844155844156,0.8560121611350392,2.7155935188635216,11.848341320777935
800,N,0,23.4375,0.990667761176002,0.9879149063882547,0.6166583040642248,0.41693811074918574,0.805445302256789,2.561653039322907,11.934356359404124
800,N,0,23.4375,0.9892455950154714,0.9891280845855439,0.6342298288508555,0.4210526315789474,0.8031982765763526,2.4185758703577314,11.136607247128442
800,N,0,31.25,0.9627743541751909,0.9620051007072252,0.6357421875,0.41693811074918574,0.8363750096731759,2.6654365715751562,11.829246505262478
800,N,0,23.4375,0.988532166445775,0.9902327721724034,0.6329659798754192,0.40764331210191085,0.8357490603793014,2.593061613710437,11.272600006351187
800,N,0,31.25,0.6741323761995488,0.689153921008327,0.594758064516129,0.46886446886446886,0.8552594822769879,2.503643703690893,11.52536436059665
800,N,0,31.25,0.6768396744302696,0.6848164906293287,0.6043859649122808,0.4740740740740741,0.7990231185722061,2.016163752426272,9.454458871291646
800,N,0,23.4375,0.9041918629118227,0.8957176389637773,0.6093916755602987,0.5080645161290323,0.7936315536315536,2.2857803417790983,10.71102948176158
800,N,0,31.25,0.9597978262288773,0.9486927424930559,0.6016260162601627,0.5099601593625498,0.8339159409624268,2.667365783422382,12.244802410771525
800,N,0,31.25,0.9664294829176515,0.9637527443051509,0.6394849785407726,0.4475524475524476,0.848212132175591,2.831933374369835,12.62724788664758
800,N,0,31.25,0.9750775922447033,0.9718213528872441,0.6400425985090522,0.4671532846715329,0.8402403680840962,2.7619319577898898,12.197651109342836
800,N,0,31.25,0.9681070272793798,0.9637569435218576,0.6575028636884307,0.4848484848484848,0.8561242447883592,2.865106332608099,12.650212343200506
800,N,0,23.4375,0.9297072847557152,0.911866622728707,0.650924024640657,0.45714285714285724,0.8237423720239037,2.4402445753164423,11.37747131922917
800,N,0,23.4375,0.9829935187371398,0.9828020954331081,0.6135624709707386,0.4142394822006473,0.7821267591254877,2.2884182997821636,10.703589009725125
800,N,0,23.4375,0.9898758982209958,0.991470796404787,0.656507014997581,0.4413793103448276,0.8178943896641531,2.5276056063768237,11.207666168933704
800,N,0,23.4375,0.986154033948684,0.9837320528558557,0.6254564423578508,0.45070422535211274,0.7969410948276198,2.464906899366426,11.384808926512722
800,N,0,23.4375,0.988515415841833,0.9859737562033418,0.6334033613445378,0.46043165467625913,0.8016738210679103,2.422849526108063,11.077622277569018
800,N,0,31.25,0.9383903485924097,0.9214927588948585,0.574028529267093,0.4758364312267659,0.8319813049082263,2.4544336593328904,11.120485096325176
800,N,0,23.4375,0.9941553164167751,0.9916380231655701,0.5973229224762968,0.49230769230769234,0.7960410577495809,2.465139663235318,11.370371254406125
800,N,0,23.4375,0.9862791681124624,0.981413189593768,0.598505072076882,0.46376811594202905,0.78849328085258,2.460600644913629,11.546466753956794
800,N,0,23.4375,0.9894003062416408,0.9878481803435791,0.6699801192842942,0.43389830508474575,0.8415318562804057,2.609037830886366,11.525465318147848
800,N,0,23.4375,0.9899319638768489,0.9855196137006941,0.5799708313077298,0.4539007092198582,0.7177568921843716,1.9072789977329492,9.950729133541495
800,N,0,31.25,0.928781264898246,0.9273607759117252,0.5903706534199464,0.40506329113924056,0.7573053094277711,2.07505441426107,9.527247163200036
800,N,0,23.4375,0.9797728013490351,0.9758749187415805,0.5896656534954408,0.4728682170542636,0.7351403482056749,1.855004941171358,9.562084670994341
800,N,0,23.4375,0.9866685209883369,0.9860958591183432,0.6413793103448275,0.4338983050847457,0.8015558351152205,2.400532543717739,11.025904083406862
800,N,0,23.4375,0.8849803977052789,0.8973841672657632,0.644723092998955,0.4,0.6798059528348571,1.9048361655739476,8.196582413667267
800,N,0,31.25,0.9841782775967237,0.9818814226212395,0.6277683134582623,0.4196721311475409,0.781804594454644,2.137630224484346,9.840048278183126
800,N,0,23.4375,-0.24451645679689193,0.021844437252588268,0.7009853890587837,0.4102564102564103,0.8253702538174467,1.8958275053193248,8.11615070096298
800,N,0,31.25,-0.33708949907134517,0.19899747931411024,0.6574585635359116,0.4266666666666667,0.8359556411188167,1.5121680964825377,7.286670595595836
800,N,0,23.4375,0.9820422961924078,0.9761361876982665,0.6002137894174239,0.468864468864469,0.791569096221827,2.490244107416891,11.571129005957198
800,N,0,23.4375,0.9813242122275294,0.9756316703281411,0.5782038345105953,0.49230769230769234,0.7079280772678834,1.8764088756261315,9.922889646898145
800,N,0,31.25,0.9419132064854128,0.9351491110579894,0.6078959174517722,0.41290322580645167,0.7862091551064662,2.458912497332959,11.382165917973074
800,N,0,31.25,0.9292222820849239,0.9299538770138158,0.6141406543813464,0.4142394822006473,0.7074795855894535,1.7552117673214374,8.870151418747238
800,N,0,23.4375,0.906264567027034,0.9091637307264042,0.5985477178423237,0.5378151260504201,0.7797573919636088,2.176403461103423,10.221225703476646
800,N,0,23.4375,0.9815651212282024,0.9788826780632535,0.6150911403136922,0.4155844155844156,0.6853530469674922,1.590300279134488,9.11291419797062
800,N,0,31.25,0.9740484475289692,0.9731969364993541,0.6072856508218569,0.42524916943521596,0.7892424849699399,2.416831553276359,10.952374801223556
800,N,0,23.4375,0.9838080227834327,0.979007631663704,0.5926110833749377,0.44137931034482764,0.7600468242847768,2.233477052118701,10.815254643720628
800,N,0,31.25,0.9687108189596404,0.9680809396258905,0.6693177061532021,0.40506329113924056,0.7879900859507486,2.3237346952313027,10.332955530747956
800,N,0,31.25,0.9651325256728431,0.9576552093530586,0.6146508966043495,0.3914373088685016,0.8062212351288642,2.3424131879986594,10.235034870171
800,N,0,31.25,0.9322787054095635,0.9124607669715106,0.5777301927194861,0.4522968197879859,0.720273411748378,1.6775770199339255,9.037920883398895
800,N,0,23.4375,0.9604434703242226,0.9591085262326228,0.632358830596716,0.4037854889589906,0.7362747338248522,2.105311978708257,9.69708739973909
800,N,0,23.4375,0.9931295631630157,0.9923227870454268,0.6407982261640797,0.4025157232704403,0.7811465843623947,2.2839905284275552,10.535682242337245
800,N,0,31.25,0.9501736429940658,0.9461621047555794,0.5965130759651307,0.40506329113924056,0.7798772143834579,2.3614963755375373,10.798820596223411
800,N,0,23.4375,0.987016205401502,0.9864286427900363,0.5985630893578805,0.44444444444444453,0.743047030739443,2.06283826482378,9.974993834812851
800,N,0,23.4375,0.9816278222175403,0.9784366226955584,0.5358872743284897,0.4776119402985075,0.702738665024924,1.9411608189524965,9.532446588949867
800,N,0,31.25,0.957163095802644,0.9492307738853215,0.6326194398682042,0.42666666666666675,0.7425996133470587,2.0641459453086553,9.654410807417621
800,N,0,23.4375,0.9892848539681819,0.9890486967258272,0.6019300361881784,0.4155844155844156,0.7448695407754989,2.016848398865632,9.363381169903542
800,N,0,23.4375,0.988542481660249,0.9875130966873863,0.6576875259013675,0.39875389408099693,0.7512934941978587,2.068535011541314,9.63754933858044
800,N,0,23.4375,0.9783008339064339,0.9774945708638878,0.6587391468478669,0.4050632911392406,0.7223117721149523,1.834153702562711,8.433372284935556
800,N,0,23.4375,0.9689002918090059,0.9723331916712188,0.6228980322003578,0.4129032258064516,0.6998601137741303,1.7276131874552012,8.203610064995768
800,N,0,23.4375,0.9589521281961213,0.947455854693834,0.5503355704697986,0.5161290322580645,0.6974360811997206,1.738655407115578,9.300610989467948
800,N,0,23.4375,0.955741190043674,0.9461271067814376,0.568824065633546,0.5224489795918368,0.6256466440409899,1.4337953200560705,8.346485825638181
800,N,0,31.25,0.9516165796873016,0.9401417668073939,0.6015399422521656,0.4885496183206106,0.7718308924750803,2.2276398711716987,10.333813612712243
800,N,0,31.25,0.951649112967094,0.9466891665810796,0.6575133485888635,0.45070422535211274,0.6725979514535909,1.53483229036907,7.774356892407984
800,N,0,23.4375,0.9826534754033944,0.978425098565172,0.5754050685500623,0.41290322580645167,0.6851723652230722,1.7078613557159732,9.183727849503686
800,N,0,31.25,0.937436045842064,0.9314588283459468,0.5936675461741424,0.42953020134228187,0.6618161069168504,1.70109396896389,8.634661182216965
800,N,0,23.4375,0.9578720697737207,0.9563484612616661,0.5907429963459195,0.45878136200716846,0.6409621155866423,1.553372732616932,8.14878170444306
800,N,0,31.25,0.9677713326362937,0.9597642886712017,0.594925634295713,0.44444444444444453,0.7315249865097851,1.9050315956266208,9.597717998320766
800,N,0,23.4375,0.9763893926629846,0.9772444050418551,0.6535616971584274,0.39999999999999997,0.7291769253320961,1.9772637064006842,9.109352017020008
800,N,0,23.4375,0.9882462445703192,0.9878712512710126,0.6455089820359282,0.4025157232704403,0.7491375626052731,1.9829457754296533,9.521812443806517
800,N,0,31.25,0.9457321071109478,0.935909736537027,0.5904298459042985,0.4571428571428572,0.7095667607051561,1.6983708996062452,9.084596502223889
800,N,0,23.4375,0.9695062409178703,0.9599869518066358,0.5576036866359448,0.49612403100775193,0.6199898215690206,1.271413786302288,8.314727022557767
800,N,0,23.4375,0.9691745075109132,0.9735448644941803,0.6559485530546624,0.46715328467153294,0.7201298701298701,1.8061063409397617,8.673806720323094
800,N,0,31.25,0.9632787798460508,0.9598667351873449,0.6182149362477231,0.42384105960264906,0.7163099450495405,1.8237631506816467,8.422921199148961
800,N,0,23.4375,0.8957486925615096,0.8701965819743438,0.6103130755064456,0.4025157232704403,0.7301059068921633,1.8317742773373324,8.641952440046312
800,N,0,23.4375,0.9148291984443407,0.894378747150977,0.5806312148724599,0.4620938628158846,0.7229771883658924,1.685387481441244,9.128042153034325
800,N,0,23.4375,0.9771404119318768,0.979662580438615,0.5922330097087379,0.4555160142348755,0.6871460538612476,1.810745063725721,9.25315169031788
800,N,0,23.4375,0.9904963685054797,0.9926584899552369,0.6087857438872774,0.41830065359477125,0.7429298362665322,2.0800501967161433,9.745013832168189
800,N,0,31.25,0.9339504121627168,0.9141074733053207,0.5694682675814753,0.4555160142348755,0.7263046140218327,1.7526178994041235,9.181202417135273
800,N,0,23.4375,0.9891064889474527,0.9895787398397959,0.6073098172545686,0.4155844155844156,0.7627690041731445,2.2352520909125055,10.313427263020023
800,N,0,31.25,0.9618242077595227,0.963602680422314,0.6281081081081081,0.40894568690095856,0.7109511449796065,1.8051433034883289,8.44213091769499
800,N,0,23.4375,0.9582371494612648,0.95429057754457,0.6058700209643607,0.4571428571428572,0.6514018456043581,1.5501639711418487,8.395219377001574
800,N,0,23.4375,0.972858369628674,0.9715218292553015,0.660965412390726,0.4102564102564103,0.6916381578757756,1.753014607460207,8.449956378429727
800,N,0,23.4375,0.9829085340394285,0.9799964178441205,0.5602137279079327,0.41423948220064744,0.7457408167297374,2.202454573678939,10.023114617620486
800,N,0,23.4375,0.9804845175812785,0.9808007941344747,0.6103896103896105,0.4115755627009647,0.70572095412219,1.7955355559211714,8.390461308682152
800,V,1,23.4375,0.6619939376121242,0.5522339798462634,0.5172413793103449,0.49042145593869746,0.20410743361723452,-0.8164872883341652,4.7924319727891165
800,N,0,31.25,0.9357492156804657,0.9218851207142019,0.6092607636068237,0.460431654676259,0.7175294253552224,1.7628728269314236,8.703775825461623
800,N,0,31.25,0.965681817894902,0.9639071070825211,0.6436058700209644,0.4295302013422819,0.7602823789091115,2.241188001997156,9.889749322954348
800,N,0,23.4375,0.9751193549437982,0.9701627328897487,0.5849379546427045,0.43835616438356173,0.7009218972837132,1.8824850343433375,9.436376406224408
800,N,0,31.25,0.9665798420032174,0.9625215518246746,0.5506958250497018,0.4338983050847458,0.7207087087453585,2.0741279623826285,9.658033131283888
800,N,0,31.25,0.9535629739758429,0.944661069846321,0.6072270227808326,0.43389830508474575,0.6985905675535183,1.7306661519998343,8.861697662603179
800,N,0,23.4375,0.9706039358769518,0.9678260825355505,0.6733503463361283,0.4037854889589907,0.6959578816113055,1.7451181932010962,8.165709300174695
800,N,0,23.4375,0.9786079087007893,0.9815830743823092,0.6164696911932902,0.4025157232704403,0.7245260354818628,1.9118663701823242,9.01556785748609
800,N,0,39.0625,0.9008436437923455,0.8751439610929574,0.5759865659109992,0.5203252032520326,0.636229814670337,1.2098440152612304,7.41520635925385
800,N,0,31.25,0.9494853006090955,0.9500765081888768,0.6188773686092242,0.39506172839506176,0.7358548190449411,1.9257675892354011,9.195014437745417
800,N,0,31.25,0.9546073731706376,0.9456162643347964,0.6001648804616654,0.4413793103448276,0.7364276940978732,1.975654110898042,9.715591383363957
800,N,0,23.4375,0.9120566614492082,0.8946892972108405,0.5672020287404903,0.4848484848484849,0.7067343954437004,1.9003012428526824,9.265998903908654
800,N,0,31.25,0.9753695284885938,0.9738972518980484,0.6096822995461422,0.4,0.7368466974958554,1.9774100609959429,9.580613039548064
800,N,0,23.4375,0.9850508168750708,0.9871635613704585,0.5998436889409926,0.4210526315789474,0.7100001491891569,1.8094335501863437,8.96310836313744
800,N,0,23.4375,0.9721497427395057,0.9803585816159922,0.6394115634621964,0.4,0.734222686056976,1.9031404431212002,8.422751340800893
800,N,0,23.4375,0.987301723635719,0.9913539112354015,0.6196798125732136,0.3962848297213624,0.7669736891018951,2.2005863597204076,9.936923424102133
800,N,0,23.4375,0.9864016455727246,0.9886551107347441,0.623121387283237,0.4000000000000001,0.7189427487512501,1.85482045700979,9.217007962601905
800,N,0,31.25,0.9664554831793801,0.9628442127472897,0.6226556639159792,0.41830065359477125,0.7043821642077552,1.8045982256592865,8.61970366312996
800,N,0,23.4375,0.9198426770997968,0.8989549982762208,0.5925039872408294,0.4324324324324325,0.729754375991852,1.7182436999808588,8.733427263786696
800,N,0,23.4375,0.9768440631372763,0.9776213120414567,0.622445187662579,0.40125391849529785,0.6936433511625668,1.7648237154742257,8.640764614053177
800,N,0,31.25,0.9436061261241758,0.9314179361389033,0.5959522949042284,0.3902439024390245,0.7348074696554747,1.917266453912587,9.150355421828984
800,N,0,23.4375,0.9283404870190135,0.9095328065478483,0.5929824561403508,0.47058823529411775,0.757021712529524,2.004944164264695,9.46889113516216
800,N,0,23.4375,0.9854628107894521,0.9861672175304718,0.6228035923467397,0.40506329113924056,0.7445550247094417,2.0193112781037486,9.030707160380636
800,N,0,31.25,0.948425706619421,0.9353416135803045,0.5783872288170282,0.44444444444444453,0.7317988585978589,1.9358981046756,9.52401535122741
800,N,0,31.25,0.9640412493031214,0.9577809936740508,0.6016460905349794,0.4295302013422819,0.7527177722551456,2.104820322298746,9.98430831516689
800,N,0,23.4375,0.9634258322917587,0.9583939200920435,0.6082042695688573,0.4705882352941178,0.6741751684958904,1.7150980165444023,8.479062455823806
800,N,0,23.4375,0.974179229185626,0.974059920621997,0.5965931087882308,0.4089456869009585,0.7314076335510133,2.044094502785336,9.678052292574822
800,N,0,23.4375,0.9777914432520362,0.976938674286866,0.6280366387893269,0.4266666666666667,0.6880804276112262,1.6928462837661549,8.626892071988925
800,N,0,23.4375,0.9890664301654248,0.990695966185413,0.6228387615601125,0.41423948220064727,0.7393000607740537,1.9873416672502588,9.319161323146256
800,N,0,31.25,0.9685508511218297,0.9647914463764318,0.5681171207808052,0.42244224422442245,0.7210128380778403,2.034415663797789,9.791451867092654
800,N,0,31.25,0.9718615806514924,0.9663345211355835,0.6069651741293532,0.42809364548494977,0.721421680935729,1.865028272300521,9.282639267186664
800,N,0,31.25,0.9792070554630475,0.9737982853453493,0.597751906864713,0.3902439024390244,0.7400417503224348,2.0180836740961614,10.009213442479043
800,N,0,23.4375,0.9854625579448292,0.986415547632654,0.6565389696169088,0.4475524475524476,0.7423315146618857,2.0702860057138595,9.665533430004553
800,N,0,31.25,0.9337169672720564,0.9123350366404732,0.5502793296089387,0.5079365079365078,0.6729735745858109,1.47696322296596,8.800335017560293
800,N,0,23.4375,0.9891536425286719,0.9891070614730683,0.6362899959497772,0.40378548895899063,0.7411175493612411,1.9957551394932465,9.418689865480731
800,N,0,31.25,0.9773168187918408,0.9720503820358646,0.5824175824175823,0.42953020134228187,0.7258783775296143,1.9150260078495087,9.723766190254516
800,N,0,23.4375,0.9875789561146859,0.9852361501964554,0.695906432748538,0.4555160142348755,0.7880284682387932,2.278060339748116,10.085583441748515
800,N,0,23.4375,0.9804694189429418,0.9783893693554998,0.568130375735627,0.4413793103448276,0.7843388960205391,2.3742633182828934,10.405605146774125
800,N,0,23.4375,0.98590961477682,0.9829671754597135,0.6306010928961749,0.4848484848484848,0.8002040083870116,2.4168751169548117,11.309189551592441
800,N,0,23.4375,0.9863241325130747,0.983779541209296,0.67590618336887,0.4115755627009647,0.7570751874820398,2.1200510992197277,9.661155243100612
800,N,0,23.4375,0.9945014963023387,0.9929743733301575,0.6034404708012676,0.4210526315789474,0.7526085525369672,2.084932776034861,10.04337711619681
800,N,0,23.4375,0.966158963522811,0.9585565967666893,0.6066907775768535,0.4491228070175439,0.7129747013748027,1.752470939069798,9.51615598397769
800,N,0,23.4375,0.9785710301919334,0.9735869864810416,0.5869759143621766,0.45070422535211274,0.722689772397496,1.8656046260698134,9.556172960825391
800,N,0,31.25,0.9636512700488351,0.9589270705878816,0.6530989824236818,0.46715328467153283,0.7537664020735462,2.1924828091546176,10.209506543548528
800,N,0,31.25,0.9770451648360444,0.9740728040576112,0.6159003831417624,0.47761194029850745,0.7650343262912873,2.196315274324809,10.171689676387366
800,N,0,23.4375,0.9958243945243789,0.9954343884172371,0.6420047732696896,0.4338983050847457,0.7847277289660011,2.2920577916483182,10.576439798714032
800,N,0,23.4375,0.9846552497386992,0.9797718446214935,0.5933014354066986,0.4671532846715329,0.7165142168332979,1.8457169780020393,9.51672375827327
800,N,0,23.4375,0.9942423786205458,0.9934566402674933,0.6552053486150908,0.423841059602649,0.8192411001399765,2.388437709062536,10.37166319287255
800,N,0,23.4375,0.9930170026320764,0.9924988050795099,0.6660098522167488,0.4353741496598641,0.8122030507626906,2.349525931923214,10.293204627707837
800,N,0,23.4375,0.9913936261080609,0.9923490659714975,0.6569548872180451,0.4295302013422819,0.8120517979672909,2.4035566891987057,10.34729668272927
800,N,0,23.4375,0.9894783204757417,0.9907421338512615,0.6691401134875601,0.4129032258064516,0.8179864405764999,2.4051610083730615,10.316217273725046
800,N,0,23.4375,0.9975390945315363,0.997141008346629,0.6551724137931035,0.4115755627009646,0.8035995595557881,2.377259815557539,10.86195354885424
800,N,0,31.25,0.9845725917040543,0.9811802078309422,0.6208791208791209,0.4295302013422819,0.7866021545617365,2.2541069638626046,10.410657280151758
800,N,0,23.4375,0.9952376519909644,0.9943775324692025,0.670360110803324,0.42105263157894746,0.8319047797282629,2.4875806058818735,10.583758954212307
800,N,0,23.4375,0.9926055426566983,0.99083848949933,0.6209453197405006,0.41290322580645156,0.8152374809283403,2.4516792600894,10.67152185668083
800,N,0,23.4375,0.9791736335370416,0.9794133502110036,0.6156156156156156,0.41025641025641035,0.7756763871951682,2.2302314944198556,10.159023539080074
800,N,0,23.4375,0.9876647597785536,0.9875797208387487,0.5863678804855276,0.4620938628158846,0.7561435984141792,2.1164081040869287,9.95430816079304
800,N,0,31.25,0.9786053352414413,0.9733063728580352,0.6471183013144591,0.43389830508474575,0.8398871464165323,2.5871114254214698,11.739439448538217
800,N,0,31.25,0.9762171220008871,0.9787894560609212,0.6473707467962881,0.4063492063492064,0.8253198034854661,2.427628632340497,10.594457383144254
800,N,0,31.25,0.950539030525545,0.9381042719578807,0.6677115987460815,0.40764331210191096,0.841946615840603,2.4266155960891176,10.614864140217971
800,N,0,31.25,0.9513235722323657,0.938847960805982,0.6312122619600558,0.4383561643835617,0.7860931774013351,2.0891112013967295,10.172503049455008
800,N,0,31.25,0.9898507614706415,0.9876592841853266,0.6240601503759398,0.4000000000000001,0.8191240616411196,2.428976036092144,10.561213796736595
800,N,0,23.4375,0.9601255415661584,0.9476531315695875,0.553941908713693,0.5245901639344263,0.7136411097852029,2.0781594970309074,10.25972904208527
800,N,0,31.25,0.9667032215016548,0.9657443777997768,0.6452599388379205,0.430976430976431,0.8390119603347789,2.688865298483063,11.9647664057995
800,N,0,31.25,0.9576351691339615,0.956578645318036,0.6232537178909419,0.40000000000000013,0.8118239945265978,2.476031836371165,11.246023266827855
800,N,0,31.25,0.9705371506012048,0.9708355745179706,0.6833250865907967,0.42384105960264906,0.8516563669597004,2.7383171626423874,12.04204985738044
800,N,0,23.4375,0.9948476782109802,0.9936759117118661,0.635264483627204,0.4368600682593857,0.8071920374624865,2.4230408544969086,10.980334006732445
800,N,0,31.25,0.958621819991864,0.9480615956845364,0.6200294550810015,0.42524916943521596,0.8189512245187981,2.4387434891473814,11.414961729245208
800,N,0,31.25,0.9506749209796413,0.937488046620369,0.6033934252386002,0.4848484848484848,0.7815886548077713,2.1553719624175716,10.602492022348567
800,N,0,31.25,0.9695983459239441,0.9629150959076256,0.6712749615975422,0.4183006535947713,0.8640319537421508,2.7003145836106315,11.928587266557727
800,N,0,23.4375,0.9823314771136196,0.9756259229935087,0.5857534246575343,0.4705882352941177,0.738926208591738,2.072558957265825,10.514909761288884
800,N,0,31.25,0.9302122102541899,0.9131886022960055,0.629908552985476,0.45714285714285724,0.8425084082105271,2.4718432927706306,11.515718310345544
800,N,0,31.25,0.9746574599501242,0.9695305792393336,0.6570397111913358,0.4555160142348754,0.8876427262475333,2.997846937967303,13.314390208512577
800,N,0,23.4375,0.9911775665911043,0.990079633792144,0.6665036674816626,0.4076433121019109,0.8456829525745976,2.588977733235918,11.246786528401923
800,N,0,31.25,0.9629449303780632,0.9646897256690022,0.6339570972158831,0.40764331210191085,0.8188095417262398,2.536149447232452,11.364490942315765
800,N,0,23.4375,0.980265580328542,0.9773230568354107,0.6302616609783847,0.4383561643835616,0.8492977464661517,2.7073262316543665,12.189912991141465
800,N,0,31.25,0.9555974441190405,0.9560622502310541,0.6226023846552617,0.4210526315789474,0.843746385313218,2.7711393442604164,12.256383111692916
800,N,0,23.4375,0.9190249703409804,0.9020038099874079,0.6202686202686203,0.4705882352941177,0.8538465347351742,2.6170160428681015,11.922562730645815
800,N,0,23.4375,0.987187350450171,0.9882407558191609,0.6343675417661099,0.40764331210191085,0.8247733592839087,2.481654532784659,10.864914175187982
800,N,0,31.25,0.9771072349014817,0.9794219257643277,0.6275219865494052,0.4210526315789474,0.8348035023946467,2.6330494341496293,11.570453937994944
800,N,0,23.4375,0.9810960783706577,0.989037750247716,0.6362715298885512,0.43986254295532645,0.8395723953749507,2.624429674032638,11.42961344557956
800,N,0,23.4375,0.9901310655500574,0.9900211269109704,0.6378698224852071,0.4620938628158845,0.8542433302667892,2.712043307394879,11.822838422308022
800,N,0,31.25,0.977337758860406,0.9754397128190502,0.6566440349175559,0.41157556270096457,0.8510428631095331,2.6739206939439844,11.776146055724444
800,N,0,23.4375,0.983383466050846,0.979454930799219,0.6243213897937026,0.4539007092198582,0.8080366241788564,2.519121896035421,11.542011877768775
800,N,0,23.4375,0.989967937276695,0.9877640478585009,0.6384120171673819,0.4571428571428572,0.8047414065961891,2.3747784645420205,11.040208013817686
800,N,0,23.4375,0.9848063311458954,0.9809431833278012,0.6234772978959027,0.4776119402985075,0.7844934821504643,2.358070222461191,11.130264435485627
800,N,0,23.4375,0.9891698585786209,0.9890251729308888,0.6253065228052966,0.4089456869009586,0.8179472486041828,2.4870992983898645,11.097714320636623
800,N,0,23.4375,0.91795072858016,0.9016619970865214,0.6344827586206896,0.47407407407407415,0.8409068077554165,2.56860174429403,11.746187027028105
800,N,0,23.4375,0.9941130712156376,0.9929764923077646,0.6420361247947456,0.4398625429553264,0.8371950385779862,2.6667028825229346,11.970853598231816
800,N,0,31.25,0.9327656512045349,0.9111296889481616,0.5602150537634408,0.496124031007752,0.7639263111723792,1.9900329757398922,10.144573719788518
800,N,0,23.4375,0.9925725632169048,0.9914652559850947,0.6395412342981976,0.44137931034482764,0.8348260014147167,2.646247446408964,11.842591466020293
800,N,0,23.4375,0.989871152327662,0.9878921822967989,0.6955457660303475,0.39751552795031053,0.8746908392723101,2.7454239416067376,11.585366176787387
800,N,0,31.25,0.9460607815440509,0.9320068325116803,0.6029106029106029,0.45390070921985815,0.8216220216072222,2.4343377841925458,11.515477246221474
800,N,0,31.25,0.9489012427286546,0.9443532720090589,0.6090621707060063,0.435374149659864,0.8240069110353145,2.6860586880129262,12.176387780464442
800,N,0,31.25,0.972453039994183,0.9681858588522131,0.6401098901098903,0.41290322580645167,0.8266878338132861,2.48484097740296,11.021444687755935
800,N,0,31.25,0.9452612462435099,0.944902955677084,0.6250597800095647,0.40506329113924056,0.8193217249776743,2.5870336426615475,11.716090752230903
800,N,0,23.4375,0.9831898404298549,0.9858624311797409,0.5946067415730338,0.39263803680981607,0.7864364275129554,2.34663837729278,10.817910366981165
800,N,0,23.4375,0.9835955427768588,0.9785816338917089,0.5903390617742684,0.41025641025641024,0.742700082934334,2.0449991402673176,10.195076908127955
800,N,0,31.25,0.9425220317578565,0.9431881732649386,0.6442615454961134,0.3950617283950618,0.8424192377237067,2.6325788704487247,11.679547129972537
800,N,0,23.4375,0.9683649588716009,0.9833164992360451,0.5761001211142511,0.4025157232704403,0.779254591508027,2.3506927261288975,10.506041352304226
800,N,0,31.25,0.9561597833250535,0.957428279283044,0.6552390149686141,0.41290322580645167,0.8190531539727793,2.5341033718915194,11.663647500823547
800,N,0,23.4375,0.9742833634767106,0.971488998811099,0.6272769733769268,0.41558441558441567,0.7526160873995602,2.098849738767188,10.313369045525548
800,N,0,31.25,0.9283013844451741,0.9141071014298906,0.5850574712643678,0.5311203319502075,0.8015990378169487,2.4337563737560384,11.324688741397077
800,N,0,23.4375,0.9874724908036612,0.9880030754328232,0.676544450025113,0.40506329113924056,0.8557490993300909,2.700101343666179,11.808672621260342
800,N,0,31.25,0.9743806171991785,0.9728863948231791,0.6292372881355932,0.44755244755244755,0.8087748105896925,2.524673598997204,11.612077323691425
800,N,0,31.25,0.971627032350343,0.9692299139809863,0.6029863855950812,0.4102564102564103,0.7655324432864078,2.1907918846022216,10.273276460847264
800,N,0,31.25,0.9679885339066743,0.9684575833684024,0.625638643752903,0.42524916943521596,0.8078434813656046,2.4210076223247974,10.833762166519326
800,N,0,31.25,0.9840227673477016,0.9796405389542848,0.6089177891314446,0.4155844155844156,0.8012482833849696,2.2909193973234334,10.338032829482978
800,N,0,23.4375,0.9937729598006548,0.9924996498586771,0.6234021632251721,0.423841059602649,0.820839570279901,2.4911890892884583,10.924430139802642
800,N,0,23.4375,0.9799737016547414,0.9800053153235708,0.624709707385044,0.3950617283950617,0.7857140771838043,2.304777695984976,10.93818287959215
800,N,0,23.4375,0.9745968317881634,0.9711313543994592,0.562585969738652,0.4210526315789475,0.764010453534442,2.3508970157289193,11.005520150541821
800,N,0,31.25,0.9558169851366503,0.9423808318446448,0.570884871550904,0.44755244755244766,0.7919279692858412,2.3020234965450475,10.9288626780226
800,N,0,23.4375,0.9764586972934027,0.9682549927571081,0.5677056719468575,0.45229681978798586,0.7525442586472071,2.246116811817652,10.887698407432042
800,N,0,23.4375,0.9890756440296162,0.9916483117685375,0.6527964205816555,0.3798219584569733,0.8361677924923112,2.557517358184583,11.254105506214998
800,N,0,31.25,0.9523467240885682,0.9515953811311338,0.6203821656050955,0.38787878787878793,0.8209536746723108,2.5257925087479918,11.22152388685973
800,N,0,23.4375,0.9823214204772415,0.97992148577995,0.6475972540045767,0.4812030075187971,0.8171330208028128,2.598970557859119,12.037871126593805
800,N,0,23.4375,0.919201089847131,0.9001193857565689,0.6176024279210925,0.4429065743944638,0.8246017469354451,2.4279829822733205,11.39513782703092
800,N,0,23.4375,0.9400169201432218,0.9221066405963173,0.5848648648648648,0.4812030075187972,0.8141223089858642,2.446769863978458,11.609009706805978
800,N,0,23.4375,0.9956650041734983,0.9960366808518535,0.6426892336624352,0.4025157232704404,0.8203667004663118,2.4775265647678193,11.04180300058742
800,N,0,31.25,0.9718096219102642,0.9753020725423185,0.6466987319632707,0.41423948220064727,0.8320459748530146,2.458781713336839,10.437193610088048
800,N,0,23.4375,0.9895308420894405,0.988577549382231,0.6352029183766529,0.39751552795031053,0.84014044683024,2.551421239175341,10.844909687208135
800,N,0,31.25,0.9676284291689281,0.959664058319747,0.6099903938520654,0.44137931034482764,0.808692699490662,2.3791762141216934,10.95249863647478
800,N,0,23.4375,0.9968845198472435,0.9959332265201852,0.6826680141485599,0.4115755627009646,0.8571551697389879,2.7381097439546145,11.975694841740939
800,N,0,31.25,0.9737253383795302,0.9672322904426679,0.6345381526104418,0.42953020134228187,0.8284621500836234,2.5255435533390407,11.625082274238105
800,N,0,31.25,0.9724726925552452,0.972217600482874,0.6666666666666666,0.4353741496598639,0.8443962805005943,2.6999955346257534,12.001929248234493
800,N,0,23.4375,0.986658918211699,0.9839485960145158,0.6251968503937009,0.4368600682593857,0.825782070283035,2.6730956503352465,12.006765387142115
800,N,0,23.4375,0.9938021545510587,0.9923695265784022,0.6456776947705443,0.4429065743944637,0.8214851296994268,2.536009373665308,11.682655552771154
800,N,0,23.4375,0.9854474050228141,0.9821898431353563,0.6836847946725861,0.47232472324723257,0.8545462402765772,2.7079019857630824,11.647607279437798
800,N,0,31.25,0.977806541390229,0.9793357467771837,0.6579595860029572,0.419672131147541,0.835340020484141,2.6240841157405055,11.660043908225731
800,N,0,23.4375,0.9760793069953116,0.9698357761882282,0.6210640608034745,0.4723247232472325,0.82163453187424,2.4728655856601467,11.574981819632065
800,N,0,31.25,0.9629914278928352,0.9683523921595074,0.6381126889601466,0.41290322580645167,0.8499842695299238,2.7254391408468925,11.678116170185813
800,N,0,23.4375,0.9955926166681729,0.9947035628686263,0.675059382422803,0.39751552795031064,0.8432368807630075,2.615826115292237,11.488505779077919
800,N,0,23.4375,0.9814608632809039,0.9810875912971961,0.6390101892285298,0.4169381107491857,0.8489938431569731,2.7637167203782917,11.94710733261266
800,S,0,31.25,0.955996264152331,0.9570865218884027,0.6727737537281636,0.41025641025641035,0.7898072728891263,2.3161763400958475,10.408810139779192
800,N,0,31.25,0.971733303191816,0.9764473720645859,0.6609271523178808,0.4000000000000001,0.8499806059686954,2.639039472745555,11.234058503054014
800,N,0,31.25,0.9355562801409782,0.9360177875436608,0.5987286452125546,0.42666666666666664,0.7550315229709192,2.10263194140455,9.609367343233615
800,N,0,31.25,0.9531598544889566,0.9477859500041076,0.6956168831168831,0.3902439024390244,0.8402143752237737,2.5481630197702483,10.801901616891854
800,N,0,23.4375,0.9639046601016914,0.9600227612194112,0.5835827276613939,0.3855421686746988,0.7715604962468847,2.307582193442172,11.003060199603484
800,N,0,23.4375,0.9659323284902235,0.9699671899032598,0.6609629924393156,0.4025157232704403,0.8212750862927543,2.354546100537165,9.974927684123328
800,N,0,23.4375,0.954645622389285,0.953883691283283,0.6369833830421816,0.43835616438356173,0.7544863082446713,2.177313960911984,9.62436372133227
800,N,0,23.4375,0.9885498866046606,0.9895691724519816,0.6137254901960785,0.4210526315789474,0.8113061984570363,2.468111558869917,10.983955129498785
800,N,0,23.4375,0.9858529702981375,0.9876224825891953,0.6489308801591247,0.4000000000000001,0.8407589381906025,2.600601557227963,11.301604817303591
800,N,0,31.25,0.9425863052877168,0.9426298264348565,0.6513292433537833,0.44137931034482764,0.8643510946601245,2.8148827962593717,12.28020481181898
800,N,0,31.25,0.9432148074622387,0.9588731281888777,0.5902883156297422,0.4025157232704404,0.7774916221918827,2.2213175052891443,9.787146807346533
800,N,0,23.4375,0.9674399640012115,0.9707647844277129,0.6185696361355082,0.4076433121019109,0.74920017975495,2.10878442099057,9.812295615555566
800,N,0,31.25,0.958029316108334,0.9655420236874622,0.6450381679389313,0.40894568690095856,0.7970944177932838,2.093623554494941,9.112631467017488
800,N,0,31.25,0.9321587697059506,0.9372358092647499,0.6385654401490451,0.42384105960264906,0.8273760071416236,2.6788335578464726,11.756876068793842
800,N,0,23.4375,0.9846064554123021,0.9848892912327523,0.6554536187563711,0.423841059602649,0.8459567905268522,2.5927909675140492,11.219018940511763
800,N,0,31.25,0.9821037452291816,0.9815014047991543,0.6614173228346456,0.40506329113924056,0.863624248885443,2.7115819265344268,11.414559729272964
800,N,0,31.25,0.977582486395414,0.9778009689155546,0.6586493987049029,0.40764331210191085,0.8461258383152652,2.4633050318495773,10.414940119334565
800,N,0,31.25,0.9365041514356267,0.9370876040058986,0.6328718177757926,0.4000000000000001,0.8141979526054526,2.4636718318933704,11.336506806815775
800,N,0,23.4375,0.9599142121251911,0.9717459984566813,0.6541176470588236,0.4129032258064516,0.781819561752556,2.1105951880209664,9.179955557262257
800,N,0,23.4375,0.9574892459692821,0.9583843810887643,0.5980590376061463,0.4,0.7832090804919803,2.319621523527089,9.920194892371779
800,N,0,31.25,0.9670306383812391,0.9612035544161806,0.6230838593327322,0.41693811074918563,0.7943928159911828,2.303657371507528,10.677088469861019
800,N,0,31.25,0.9752079051300994,0.9784217017069647,0.6306345733041575,0.3914373088685017,0.8270266437977025,2.4836858106458894,10.734659670188574
800,N,0,31.25,0.9652600226770114,0.9696405986298063,0.6499761564139246,0.4295302013422819,0.8383473395820213,2.6588711018633497,11.586287402117145
800,N,0,31.25,0.9800464661073364,0.9836635054395176,0.6328125000000001,0.4089456869009585,0.8333990758480784,2.4487634102223765,10.258441218765947
800,N,0,31.25,0.9857946641509451,0.9835895992383051,0.6963402571711177,0.4295302013422819,0.8427826767472084,2.4530405293122386,10.659598924210062
800,N,0,31.25,0.953463976663808,0.9552137313970591,0.6427525622254758,0.41830065359477125,0.8448507866622721,2.5973601518542178,11.132161335975153
800,N,0,31.25,0.9495944248678599,0.9519955121521702,0.6916752312435765,0.42384105960264906,0.8852869772936763,2.8290565106116,11.861194680065225
800,N,0,23.4375,0.9822478042793487,0.9855317754792579,0.6582343830665979,0.4012539184952978,0.8512064891464747,2.7128362084847453,11.873660177826778
800,N,0,31.25,0.9842184504202116,0.986133538943902,0.7097457627118644,0.44137931034482764,0.8730239885032058,2.6985827472475528,11.385628049656924
800,N,0,23.4375,0.9880526573260301,0.9898644624305073,0.6658378915962209,0.40125391849529785,0.8535653327410635,2.6326304183103866,11.35115008012935
800,N,0,23.4375,0.9901002192527717,0.9916223222483548,0.6998436685773841,0.40764331210191085,0.8796213979876166,2.786837774076412,11.728191663559613
800,N,0,31.25,0.9375220140769889,0.9388432096200204,0.6841085271317829,0.40506329113924056,0.8838115773760159,2.801018125495314,11.717904326846016
800,N,0,31.25,0.9729780427208945,0.9763413397031462,0.6579887697805002,0.4142394822006473,0.8393238439630464,2.610222935159513,11.554623159397794
800,N,0,23.4375,0.9907063234501535,0.9938274584787381,0.6555716353111433,0.3902439024390244,0.8489128956418673,2.5879159778139043,11.039375590986264
800,N,0,23.4375,0.9856430415572887,0.9887963999996212,0.682429069188651,0.40251572327044033,0.8836681105238542,2.8273702656387423,11.818362991522145
800,N,0,23.4375,0.9922595015567879,0.9933231609539706,0.6898449224612304,0.3902439024390244,0.8627808838987827,2.724562581850108,11.851600480260128
800,N,0,23.4375,0.9862861396222159,0.98470679226976,0.6744407425035697,0.3950617283950618,0.861952394320415,2.694194722120437,11.431367327741812
800,N,0,23.4375,0.972406468705367,0.9775086629776754,0.6355353075170842,0.39751552795031064,0.8286926854135127,2.606298349709882,11.423949902486392
800,N,0,23.4375,0.9789821931908362,0.979424482017762,0.6744913928012519,0.4155844155844156,0.8478934101548433,2.746090859571979,12.335426145166526
800,N,0,31.25,0.9783835472444107,0.9827535294293666,0.6300477637863656,0.3890577507598785,0.8538677458287398,2.6552850010396223,11.13767951721515
800,N,0,23.4375,0.9855281381754103,0.9886496691612077,0.6385654401490453,0.423841059602649,0.8180904963037622,2.4950892472256823,10.974637209703236
800,N,0,31.25,0.9816703451382657,0.9858641543757392,0.6707594361073214,0.3950617283950618,0.8699117539954385,2.668567439469498,11.029799356573244
800,N,0,23.4375,0.9873529756638091,0.9909506674891808,0.6517259144770736,0.4025157232704404,0.846408061369251,2.701084882770091,11.915317991065894
800,N,0,31.25,0.9615925722343962,0.9650660115096323,0.6769890424011432,0.4025157232704403,0.8638960386716052,2.730858593623276,11.913805317644673
800,N,0,23.4375,0.989010156751685,0.9903793058659298,0.6873449131513648,0.39263803680981607,0.864092250267173,2.7183302878029485,11.86465764480079
800,N,0,31.25,0.9630996334059727,0.9688567779019317,0.6590807675145026,0.39751552795031053,0.825760324878046,2.420464228952222,10.816308862510901
800,N,0,31.25,0.9741834367305828,0.9704786867887987,0.6727642276422765,0.41558441558441567,0.8902892291584873,2.888932606281864,12.164913671043497
800,N,0,23.4375,0.9907712859098943,0.9943059976444995,0.6634760705289673,0.38905775075987853,0.8591317664093527,2.702243329007905,11.69876428165568
800,N,0,23.4375,0.971350910451461,0.9732115212624,0.690958904109589,0.4295302013422819,0.8927387767399819,3.007762974864319,13.012272476977268
800,N,0,31.25,0.9802694822184905,0.9791799165839414,0.6866913123844731,0.398753894080997,0.8705770665964265,2.6192117166288913,10.945284558880038
800,N,0,23.4375,0.9901881076850048,0.9929403395443596,0.6325088339222614,0.4076433121019108,0.8283027013488617,2.557651555485029,11.56459450792508
800,N,0,31.25,0.9770649650992473,0.9738192552096887,0.6445258818140176,0.3902439024390244,0.8614281815178199,2.7613924099314047,11.984972204387796
800,N,0,23.4375,0.9861449854447705,0.987682841120824,0.6803476581361662,0.4,0.8445737110859929,2.613330586329964,11.494766013062844
800,N,0,31.25,0.953313267438699,0.9519714812233292,0.640472521828454,0.42244224422442245,0.8565090299945844,2.831590109238196,12.406805653089577
800,N,0,31.25,0.9547829593483914,0.9533624814626194,0.6078058067586865,0.42384105960264906,0.821875961859877,2.6214099535435045,11.88128951823222
800,N,0,23.4375,0.9907368623740371,0.9914567252478194,0.6462724935732648,0.4063492063492064,0.8632139283048266,2.7853985830424777,12.005144926994886
800,N,0,23.4375,0.9945443518886383,0.9936797853045083,0.6520453425332676,0.3962848297213622,0.8427794490942426,2.6434031418826542,11.741263609010696
800,N,0,23.4375,0.9893612258598508,0.9877561762862136,0.6647987773815589,0.4025157232704403,0.860661131028993,2.751538450195973,12.147117088478609
800,N,0,31.25,0.9447941863247341,0.9432230250682859,0.6412110257568912,0.4037854889589907,0.8196482900759272,2.5393801778965006,11.618840759600447
800,N,0,31.25,0.931288669926034,0.9292004255765534,0.636767976278725,0.4037854889589907,0.7727352131201447,2.18202480119949,9.265597026810532
800,N,0,31.25,0.9653601193399397,0.9646904421957443,0.6495683087861859,0.4266666666666667,0.8344956698676563,2.6686648655470244,12.01978380442865
800,N,0,31.25,0.9456378862327158,0.9468003883739713,0.6534610361340879,0.3855421686746988,0.8389523472108364,2.5655285766743647,11.247970266923842
800,N,0,31.25,0.9699625665436373,0.9720215463362217,0.6776822091444092,0.39024390243902446,0.8615494587200472,2.7075194245191625,11.538034166943252
800,N,0,31.25,0.9657252893349128,0.9650029927772386,0.6307692307692309,0.4155844155844156,0.816720673193726,2.5449838066882076,11.442118219102813
800,N,0,31.25,0.9783096408083551,0.9818665687378203,0.6919808815719596,0.4183006535947713,0.8829266964568308,2.9029964092950227,12.443347601644028
800,N,0,31.25,0.9868356920719449,0.9843896653715765,0.6558915537017727,0.41693811074918563,0.8603740902865432,2.739075298272868,11.994983181259562
800,N,0,31.25,0.9612068369649924,0.9535318284178806,0.6334819217434374,0.43243243243243246,0.8428509014058749,2.6047313028610746,11.740371857309992
800,N,0,23.4375,0.9888527177788035,0.9890395158088228,0.659274193548387,0.40634920634920635,0.8647710874983603,2.7916268236852773,12.15667364643587
800,N,0,23.4375,0.9896666934340447,0.9882972647059031,0.6653465346534654,0.41025641025641024,0.8571736484430469,2.680950548400843,11.589445475431514
800,N,0,23.4375,0.986501417448408,0.9866470683627923,0.6955322669608385,0.43243243243243246,0.8810750765993919,2.893613686742107,12.445696142328798
800,N,0,23.4375,0.981074512369276,0.9805221391200599,0.6147336983573918,0.423841059602649,0.8081122270982906,2.5130768699307744,11.640047203415072
800,S,0,31.25,0.9497101592221986,0.9495241206897163,0.6771687526974536,0.4037854889589907,0.8241790014368028,2.4991425099737423,11.301642661094437
800,N,0,23.4375,0.952190460049985,0.9526522791019367,0.6518856195607128,0.4025157232704403,0.7790569716224998,2.2451835292053017,9.75350117372796
800,N,0,23.4375,0.9777336323631798,0.9775531573516755,0.6779911373707532,0.40764331210191085,0.8642926529824418,2.6994715470059907,11.709148992984748
800,N,0,31.25,0.9754405830577182,0.9735221918304795,0.7020148462354189,0.40506329113924056,0.9056592333903257,2.956683598278147,12.310761475765787
800,N,0,23.4375,0.9904620624363647,0.9906974115420567,0.6813353566009105,0.3975155279503106,0.867454329745522,2.7362449156379802,11.734571782025048
800,N,0,31.25,0.9886823819776115,0.9865447879017301,0.680473372781065,0.4025157232704403,0.8818655064882805,2.83792100747469,12.03994811383227
800,N,0,23.4375,0.9882646671191744,0.9879153272087761,0.6085145765849143,0.4076433121019108,0.8112692891184086,2.446785390491774,10.906817779504534
800,N,0,23.4375,0.9822911094300241,0.980828267859496,0.681622618315919,0.45390070921985826,0.8933788213604196,3.097805358321532,13.471274421223402
800,N,0,23.4375,0.9818684618321281,0.9845981649599963,0.679869777536625,0.41290322580645167,0.8883787361761901,2.942276301626121,12.49265591297814
800,N,0,23.4375,0.9876547788935035,0.989266202289855,0.6978989210675752,0.4115755627009646,0.8881685397772721,2.9722720896890475,12.97254484748064
800,N,0,23.4375,0.9804974798034338,0.984044829500205,0.6541908276225619,0.40764331210191085,0.8766790214024172,2.874270195160265,12.208616440111244
800,N,0,23.4375,0.9801033775718371,0.981880246603488,0.7015735214324471,0.4155844155844156,0.8647682702449915,2.7845477594909327,12.284688731353846
800,N,0,23.4375,0.9860567676249752,0.9866007562384069,0.7156809549647313,0.41025641025641024,0.9046526856736371,2.9705825572707076,12.425941102258417
800,N,0,31.25,0.9879096337429182,0.9888775735903558,0.67523953605648,0.39384615384615385,0.8607143385781316,2.710823614505265,11.76265444608596
800,N,0,31.25,0.9634983422550167,0.9662900861981627,0.6401419158641662,0.41830065359477125,0.8543946444607723,2.813136319225781,12.352229537249231
800,N,0,31.25,0.9754355035173745,0.9716115310181992,0.6966292134831461,0.419672131147541,0.8905782588855651,2.776942525559066,11.451497575764737
800,N,0,23.4375,0.981642839323787,0.9847142355121193,0.658408012651555,0.4129032258064516,0.8434628869972886,2.684973294861288,12.010969538516509
800,N,0,31.25,0.9790302813016144,0.98100087759956,0.7107309486780715,0.4155844155844156,0.881628439853889,2.8277676840685415,12.059244391175694
800,N,0,31.25,0.9494080203653303,0.9500070434866114,0.6624040920716112,0.4280936454849498,0.8584635022787184,2.7402516669965706,11.84785328082606
800,N,0,23.4375,0.9902834044779126,0.9905802209707705,0.7019280875455968,0.3975155279503106,0.8806548025427456,2.7936198529657448,11.870399407840408
800,N,0,31.25,0.9521686198119106,0.9542912983120594,0.708397733127254,0.4025157232704403,0.8790564267356216,2.915018303869922,12.781308025561152
800,N,0,23.4375,0.9890906379194692,0.9919385425433273,0.6871329418045916,0.4,0.8678945246351101,2.783251513655669,12.157883076169874
800,N,0,31.25,0.970211886626148,0.9742851874100806,0.6809499225606609,0.40764331210191085,0.8589325912065575,2.765678484348975,12.220298005287527
800,N,0,31.25,0.963855200383522,0.9685588978168523,0.6923842707814833,0.40251572327044033,0.879657048311989,2.8210587113995014,12.026848428976715
800,N,0,31.25,0.9801758467088245,0.9774431236841785,0.6915568570034163,0.4142394822006472,0.8590774194530264,2.6069407020131177,11.26864976679025
800,N,0,23.4375,0.9823884959018084,0.983207879976968,0.6881665820213306,0.4129032258064516,0.8851716818174454,2.855816340587677,11.99777411541097
800,N,0,23.4375,0.9815242400063412,0.9822564013603012,0.7266706803130644,0.42384105960264906,0.9227187218237608,3.1556087325230475,13.26391610601627
800,N,0,23.4375,0.9812826960272193,0.9776129375570762,0.7262693156732891,0.423841059602649,0.9098748830682883,3.000019234476878,12.615542937727387
800,N,0,23.4375,0.9810639824439441,0.9812416982675237,0.6933265410086602,0.4050632911392405,0.8687486853834674,2.8137159094052833,12.110730838442963
800,N,0,31.25,0.9643577182031028,0.9644315752847735,0.6840764331210191,0.46715328467153283,0.9121422209803889,3.238613415620496,14.01544023766738
800,N,0,31.25,0.9702478880560431,0.9738807069235004,0.7113079729025534,0.40764331210191096,0.8953044441471238,2.93111435235793,12.42629039498754
800,N,0,31.25,0.9680390206310736,0.9697223699366476,0.6795969773299748,0.4155844155844156,0.8689410764069366,2.809714159702101,12.137766877047342
800,N,0,31.25,0.9835311693844506,0.9804968985919456,0.6822709163346614,0.40506329113924056,0.8603062396962583,2.6894160995123215,11.819697989074966
800,N,0,31.25,0.9680337233429193,0.9718899069186503,0.6974019358125318,0.4025157232704404,0.8927184951496032,2.923949207316864,12.395680251001492
800,N,0,23.4375,0.9904031689273717,0.9907929594724559,0.6975342465753424,0.4295302013422819,0.8763808426536814,2.8224568190166575,12.107998088516354
800,N,0,31.25,0.9567185352415566,0.9485911996911358,0.7303893085415456,0.44755244755244755,0.9201734946612468,3.1163583006633973,13.403886415527076
800,N,0,23.4375,0.9838477530656314,0.9874236389979183,0.6951841359773371,0.4183006535947712,0.886352517385963,2.961441305287747,12.83874187050052
800,N,0,31.25,0.9239200485929913,0.9090837876805572,0.7240143369175628,0.4491228070175439,0.9245324300670968,3.1464641349506737,13.54453861230606
800,N,0,31.25,0.942424583933654,0.9421134104067341,0.7047058823529412,0.42666666666666675,0.8954149008046189,3.05138298356793,13.322252642266179
800,N,0,31.25,0.9645668713359011,0.9577894796418187,0.6943089430894308,0.4266666666666667,0.8990966756683864,2.979368081439612,13.077490160901986
800,N,0,31.25,0.9737512268427136,0.9689027225411434,0.6960457360647928,0.392638036809816,0.8860416998249243,2.8419279994449913,12.081507794986935
800,S,0,23.4375,0.9548764267781004,0.9586027868915322,0.6164495114006514,0.41830065359477125,0.7895173907810806,2.321586376845996,9.998913665955378
800,N,0,31.25,0.9762285627656722,0.9749004409738753,0.6943589743589743,0.41025641025641024,0.8821146079304247,2.7956319886092533,12.007317489893344
800,N,0,23.4375,0.9788864823304402,0.9796872621145739,0.703037120359955,0.4383561643835616,0.880100196694854,2.9874963196984203,13.069541267102649
800,N,0,23.4375,0.9927578369297619,0.9932442976193502,0.6782608695652175,0.42244224422442245,0.8694913188331213,2.7568152058821385,11.78174281467346
800,N,0,31.25,0.9677501275068229,0.9631304577634983,0.657271702367531,0.46209386281588444,0.8930905035654825,2.9005988760648744,12.39109714047883
800,N,0,31.25,0.9491559358409817,0.9503478127628482,0.7048808172531215,0.429530201342282,0.8841184250686742,2.914514239845925,12.589696279832365
800,N,0,23.4375,0.9893536530568708,0.9905156343572051,0.7004048582995952,0.42384105960264906,0.878229177832565,2.9086951247507256,12.743370158899477
800,N,0,31.25,0.9787614753710719,0.9815834184777117,0.6817456093666844,0.42384105960264906,0.8652262765590784,2.8282533673309893,12.33681239617027
800,N,0,23.4375,0.9803224796779398,0.9775562562352973,0.7384259259259259,0.4129032258064516,0.9224374357216317,3.1235197717597565,13.322136671377612
800,N,0,23.4375,0.9927728303249305,0.9942297315019192,0.6857301499167129,0.4196721311475411,0.8668265415880517,2.801059441595727,12.189661566632271
800,N,0,31.25,0.6626564428345788,0.6748474913170903,0.6731070496083551,0.41967213114754104,0.9203280958580549,2.7897141548285207,12.209939608593453
800,N,0,23.4375,0.9809929026735955,0.9825989537300702,0.6993615786419036,0.423841059602649,0.8887191362001494,3.001835690535487,13.101021765822006
800,N,0,31.25,0.9759767128615487,0.9786349062326415,0.6675962074735081,0.4183006535947713,0.8811983863886977,2.9573844327620518,12.837242732849925
800,N,0,31.25,0.9724614454706623,0.9659663236876301,0.6783295711060948,0.45878136200716846,0.89881284686874,2.927559132472409,12.549747904751545
800,N,0,23.4375,0.9931363171055604,0.9913534177660482,0.703026841804683,0.43537414965986393,0.8867481221595066,2.940514199054463,12.820324104215356
800,S,0,31.25,0.9683555566198794,0.9629652714436848,0.7166301969365426,0.4368600682593856,0.8920582850167839,2.93546188510073,12.923999825437186
800,N,0,23.4375,0.9759775228427043,0.9760296359370012,0.6802469135802469,0.4507042253521127,0.8824490199960403,3.0453925970156637,13.456548344832212
800,N,0,23.4375,0.9865514551406083,0.9850772649011554,0.6757425742574258,0.467153284671533,0.8834653427824307,2.9778881334979364,13.145549709381122
800,N,0,23.4375,0.9894818819834418,0.9887165307611927,0.6233692569483835,0.435374149659864,0.8088639708348293,2.4915436481846567,11.893308152900568
800,N,0,23.4375,0.9888526614749962,0.9896155873326791,0.6470588235294118,0.42384105960264906,0.8554037531231725,2.7719587121545017,12.072004688024915
800,N,0,23.4375,0.9817716428423714,0.9823758021877297,0.6609285341679708,0.4224422442244224,0.8539780575875809,2.688283680054567,11.967123405127737
800,N,0,23.4375,0.9842166567855997,0.9821884376891202,0.6583333333333334,0.4671532846715329,0.8598965346183827,2.6971071210432913,12.029943688186398
800,N,0,23.4375,0.9871668481391802,0.9843519526697962,0.6604244694132335,0.48484848484848475,0.8836938869619264,3.0268550906560985,13.344901227550983
800,N,0,23.4375,0.990428794577302,0.9848264372341826,0.7422680412371134,0.44755244755244755,0.8989046598369647,3.024142185490983,12.959928994946091
800,N,0,23.4375,0.9891113459429434,0.989266064892506,0.6391594054331112,0.41290322580645156,0.8257758232971866,2.5893341822082276,11.680893056670778
800,N,0,23.4375,0.9804941182680239,0.9744521623620778,0.6032085561497327,0.4444444444444445,0.8028195284206601,2.403609076964903,11.556844204323294
800,N,0,23.4375,0.9754672027905829,0.9706862518355559,0.6451612903225805,0.4507042253521127,0.858684154855088,2.7676371706352025,12.544520692649446
800,N,0,31.25,0.9900701642700245,0.9901591677537253,0.6723044397463003,0.42105263157894746,0.8620069830596145,2.69123608612488,11.554362972069443
800,N,0,31.25,0.9777379429492126,0.9728013199963617,0.6364444444444444,0.41025641025641035,0.8265942466304568,2.4789468117905145,10.912784736306312
800,N,0,31.25,0.9919362271074758,0.9904742013388643,0.6897233201581028,0.4129032258064516,0.8610264102690207,2.6229534537093175,11.174514246459625
800,N,0,23.4375,0.9960053935197355,0.9955955189196655,0.6603773584905661,0.4295302013422819,0.8557553015418983,2.7598513136253717,12.006164290672068
800,N,0,31.25,0.9755721181497712,0.9749003911391962,0.6620021528525296,0.45714285714285713,0.859375723971767,2.7987025511109,12.094887794690688
800,N,0,23.4375,0.9873207888032449,0.9840530538885341,0.6666666666666667,0.48120300751879697,0.8404743762577417,2.798311620502613,12.789729401072929
800,N,0,31.25,0.9806042597501619,0.9809028574517377,0.6682769726247986,0.4295302013422819,0.8778603088794827,2.912317261242014,12.49727471843449
800,N,0,31.25,0.9702657569874471,0.9677231515003533,0.7033374536464772,0.48120300751879697,0.8870468571842254,3.0295439580703944,13.200887094372428
800,N,0,23.4375,0.9950373951780349,0.9943603582937055,0.6921385376580539,0.4224422442244225,0.8781420785030034,2.8874125046546277,12.491707630162912
800,N,0,31.25,0.9901392562129984,0.988700583936395,0.6736483195323916,0.39263803680981596,0.8533015317366028,2.688201835862588,11.925009531164067
800,N,0,31.25,0.9586230836087648,0.9580063277941845,0.6432598667350077,0.4155844155844156,0.8424923437363858,2.738717164270134,12.293651171932591
800,N,0,31.25,0.9590082858174752,0.9619075065677646,0.6611437733832175,0.4102564102564103,0.8657912272889486,2.8375931529725262,12.374901946355784
800,N,0,31.25,0.9832104796016253,0.9836151469341794,0.6511999999999999,0.4295302013422819,0.841185731290558,2.692065568550825,11.944812471175522
800,N,0,23.4375,0.9872881946935885,0.9858454487470518,0.636468551644547,0.4794007490636704,0.8104837350412945,2.6000287866767056,12.23674605983604
800,N,0,23.4375,0.9806949426757114,0.984711079927332,0.6887298747763864,0.4475524475524476,0.8901383153796906,3.014167211610491,13.131709648649434
800,N,0,23.4375,0.9800652101666889,0.9776525007158989,0.6245772266065389,0.4740740740740742,0.8079253665037762,2.452402514283432,11.568166023175781
800,N,0,23.4375,0.9736496968009493,0.9680684795961719,0.6847004072134961,0.44137931034482764,0.8926439466754018,3.1628846621289557,13.970994430222124
800,N,0,23.4375,0.9843284283103924,0.9811081942093757,0.6333511491181185,0.41830065359477125,0.7997478270836873,2.622007031505616,12.708407814923598
800,N,0,23.4375,0.9745526737924204,0.9683720642989897,0.6466512702078522,0.47761194029850745,0.8489719351160482,2.8971993261232893,13.020232491596895
800,N,0,23.4375,0.9824523082539929,0.9814896466223072,0.6347080878414569,0.460431654676259,0.8112645276646469,2.4901382589226433,11.72791899745274
800,N,0,23.4375,0.9908041996059689,0.9909169561325984,0.6614950634696757,0.40251572327044033,0.8516028507086398,2.613509387638463,11.153506898857227
800,N,0,31.25,0.9677703533451167,0.9633572676487502,0.6979591836734693,0.3950617283950618,0.8764484191476838,2.7677012766581144,11.687859682162175
800,N,0,31.25,0.9761441794726426,0.9750881393561122,0.6792357968828558,0.435374149659864,0.8238009072562514,2.5684408226164352,11.31623054287984
800,N,0,23.4375,0.9906995104965172,0.9883329493938484,0.6015701668302257,0.4266666666666667,0.7763217822426378,2.2556857680481284,10.558229875343088
800,N,0,23.4375,0.9854083467561016,0.9816633215933647,0.6310776942355889,0.4155844155844156,0.7808868353312439,2.3680128567242007,11.509731690181697
800,N,0,23.4375,0.9740179873107964,0.9740400950378256,0.6497389653535833,0.42105263157894735,0.837124240001938,2.6850680556647046,11.694929156761226
800,N,0,23.4375,0.9802211598987353,0.9801385195546756,0.6300910397700047,0.4338983050847457,0.787231619518063,2.2841255452810105,10.87055074630356
800,N,0,23.4375,0.9859012798685093,0.9849136910635294,0.7088465845464726,0.45714285714285724,0.8714229713837711,2.7113789089690896,11.3827323803948
800,N,0,31.25,0.9679999479463087,0.9688994958291274,0.6678700361010831,0.4413793103448277,0.8485700873964874,2.7581289283208403,12.095093182697417
800,N,0,31.25,0.9718844476763704,0.9729908018984462,0.6946564885496184,0.4169381107491857,0.8427030483628563,2.6390958044111708,11.402763913631249
800,N,0,31.25,0.9411864256738077,0.940055983749707,0.6897533206831119,0.43686006825938567,0.8411862208129144,2.6498251084120734,11.651162587137426
800,N,0,31.25,0.9770019466522669,0.972979881752502,0.6254901960784314,0.4413793103448276,0.8086067853170187,2.3824721628966876,10.991605123440175
800,N,0,23.4375,0.9782570174247047,0.9760229144444051,0.5980246913580247,0.45551601423487553,0.7743450233603405,2.3523476471133726,11.065236346990169
800,N,0,23.4375,0.9905637686575962,0.9920216809890877,0.6374326310632042,0.4444444444444445,0.7973322821155252,2.386108633831447,10.91243205870607
800,N,0,23.4375,0.97427811746876,0.9744732617332055,0.6230809952355743,0.4444444444444445,0.785016579645674,2.479844064366631,11.666379117697025
800,N,0,31.25,0.9652492375487983,0.9568351835296742,0.6459378134403209,0.45070422535211274,0.8111827367073562,2.4876695889986378,11.241445958820576
800,N,0,31.25,0.9389235294053273,0.9245156150821793,0.6537850714663843,0.43537414965986393,0.8600290967960709,2.6534368728546633,12.074253257263754
800,N,0,23.4375,0.9897605526638724,0.9898323943879341,0.6411582213029988,0.43986254295532645,0.8292681045388626,2.5909823713847024,11.669033016963716
800,N,0,31.25,0.9593313350886383,0.9499233911704142,0.6076923076923076,0.5019607843137255,0.8252952755905513,2.560704893600508,11.80775069672724
800,N,0,23.4375,0.9923104184713657,0.9924558824054861,0.6404109589041096,0.4705882352941177,0.8485354896675651,2.756378256431264,12.210902286303146
800,N,0,31.25,0.9744902601452967,0.971806681179774,0.6710735060814383,0.45390070921985815,0.8298525537929894,2.6718282562345106,12.133320775547624
800,N,0,23.4375,0.9953313368281658,0.9957319876795581,0.6807785888077859,0.4050632911392406,0.844822144802841,2.5714512125639994,11.162640524162374
800,N,0,31.25,0.9838709770675063,0.9818813920457494,0.65,0.4383561643835617,0.8091891589203718,2.328680964503158,10.455469919695103
800,N,0,31.25,0.9789866443784009,0.9799561063968236,0.6570397111913356,0.4142394822006472,0.8360219807983831,2.5642936102973324,11.168682302673787
800,N,0,31.25,0.9376118619644278,0.9357284837519465,0.5878121032585696,0.4338983050847458,0.774280995236976,2.3645662509967473,10.823850439362227
800,N,0,23.4375,0.951633541011777,0.9677351520967894,0.6672897196261682,0.41290322580645167,0.7749275829631426,2.100745099553623,8.911953611125247
800,N,0,31.25,-0.15575302821186016,0.17934429602827354,0.6951026856240126,0.4169381107491857,0.8867239652870492,2.2707559382693447,9.691267903809756
800,N,0,31.25,0.9633660712636611,0.9635590708260925,0.6266447368421053,0.43835616438356173,0.8102349118150473,2.309978771495855,9.394848308264452
800,N,0,31.25,0.9480301248597869,0.9504482317943299,0.6905494505494505,0.42666666666666675,0.7986826335944244,2.3295228863926156,10.643678819925837
800,N,0,31.25,0.9285802700472836,0.9195722922825681,0.5842839036755387,0.43986254295532656,0.7291889825233269,1.9997708166231059,10.065351521499231
800,N,0,31.25,0.9419589192567905,0.9515964631385898,0.6713725490196079,0.4155844155844156,0.8323512728198836,2.45448340228828,10.237909020498916
800,N,0,31.25,0.9624282132030771,0.9593033606826592,0.5559105431309904,0.43986254295532645,0.7501628134158255,2.14949314468366,9.784798902251769
800,N,0,31.25,0.9633988757932191,0.9603497866735136,0.6208969024503005,0.4475524475524476,0.7712582333004061,2.3344915516357143,10.892878779555158
800,N,0,31.25,0.9628279611335896,0.9766166259348602,0.6193205075726566,0.42524916943521596,0.7954419988584724,2.3604479835985734,10.276252952733051
800,N,0,23.4375,0.9955072970810553,0.9943871096220978,0.661944308744504,0.40894568690095845,0.8339872671694573,2.575382444593964,11.492004871920253
800,N,0,23.4375,0.9952735919862506,0.9943041115307418,0.650398406374502,0.42244224422442245,0.8177520712393621,2.491110403469252,11.246796982522998
800,N,0,31.25,0.968989865883537,0.9691340006567796,0.6255051638976201,0.4280936454849499,0.8178747503992023,2.5428281613336785,11.139757953648374
800,N,0,31.25,0.9731491227871385,0.966710492867275,0.609942638623327,0.4413793103448276,0.7816746235769371,2.2269982708631835,10.638042248020543
800,N,0,23.4375,0.9517611618818307,0.9508009200850653,0.5637275386544087,0.41693811074918563,0.711221555538121,2.0611947918347653,10.386310681616202
800,N,0,23.4375,0.9464335738381869,0.9425625776565955,0.6400801603206413,0.41290322580645167,0.7505745800463214,2.0850255390476504,9.399709082899953
800,N,0,23.4375,0.9567508278440123,0.9491790604804398,0.5925420645748067,0.449122807017544,0.7053994689751794,1.9172417498272722,10.09081559508371
800,N,0,31.25,0.9620746206226249,0.9504617721229367,0.5642701525054467,0.4961240310077519,0.7285473642489099,2.110103495147254,10.865591071547389
800,N,0,31.25,0.9619910076353314,0.963783004757725,0.6335214937038645,0.40000000000000013,0.8091306804148297,2.440908185185494,11.068667973364727
800,N,0,31.25,0.9552499062266008,0.9449193293026853,0.6118741692512185,0.4210526315789474,0.7929448959172984,2.3290975238187284,10.991374552256229
800,N,0,23.4375,0.9754966422964519,0.9766956813983619,0.6887063655030801,0.3938461538461539,0.8382657493903929,2.422259375978962,10.0246151484401
800,N,0,23.4375,-0.2168709994607299,0.07985162088957642,0.6390090444357057,0.425249169435216,0.8882794534766152,2.023916612640017,9.102647060181035
800,N,0,31.25,-0.24168679758259226,0.02769160511164879,0.715208266063933,0.4129032258064517,0.7968627126360666,1.6443790956523499,7.2396642661352955
800,N,0,31.25,0.963135575916002,0.9654141704266911,0.6773296244784422,0.4025157232704404,0.8349673440932042,2.5767852256128942,11.495831748204516
800,N,0,23.4375,0.995115714035663,0.9955768957048504,0.6547024079963651,0.40506329113924056,0.827414288265448,2.466452205406015,10.598200193905603
800,N,0,31.25,0.9703244192105653,0.9689034919868768,0.7244945933239304,0.4025157232704403,0.8620652307988531,2.739821569465106,11.819357883500514
800,N,0,23.4375,0.9790716482977981,0.9716465788285418,0.7192501143118427,0.41693811074918563,0.8211116540184445,2.551347113137409,11.034936631049765
800,N,0,23.4375,0.9931396179826886,0.9935997149405916,0.6544733362714852,0.40506329113924044,0.7780068297317403,2.1780877495135846,10.117919005872949
800,N,0,23.4375,0.9910539473021394,0.9888574709774106,0.626641651031895,0.4266666666666667,0.7891824722040549,2.2604093051694036,10.48324154503405
800,N,0,31.25,0.9848755321641595,0.9805667798240586,0.6864521975532397,0.40506329113924056,0.8389527343625334,2.5151267240733755,10.946122755591352
800,N,0,31.25,0.9762323161496528,0.9738200387496785,0.6736279747450219,0.43537414965986393,0.8133135706509984,2.544257847484307,11.351015040877744
800,N,0,23.4375,0.9773433953879989,0.97226028864274,0.6646370023419204,0.42524916943521596,0.7868146069860955,2.2275927344730384,10.711487216872246
800,N,0,23.4375,0.9899065565919647,0.9922207975539847,0.6536368134586837,0.42105263157894735,0.783310660465901,2.291683781009969,10.906313543183765
800,N,0,31.25,0.9481359925969448,0.9468980604984634,0.6960690316395016,0.42105263157894735,0.8344221072098562,2.641787050321761,11.66825637557785
800,N,0,31.25,0.9828607113504916,0.985578557802202,0.7057492077863287,0.4000000000000001,0.8436614644128371,2.540693861307587,10.812922051039802
800,N,0,23.4375,0.9845866034383589,0.9858416587294822,0.7081623347013223,0.4076433121019109,0.8357241948851702,2.4875990113893356,10.665837600619229
800,N,0,23.4375,0.9823068721860935,0.9792885791386812,0.6643835616438357,0.47058823529411764,0.8338508245359828,2.5806385793226623,11.71879773737034
801,N,0,31.25,0.9584325081560526,0.904004524474201,0.3216308040770103,0.37317784256559783,0.14962836596558754,-0.1627893236073474,2.1276816875984226
801,V,1,31.25,-0.35640109058663744,0.15286058824635151,0.27533251062662834,0.20915032679738577,0.5661652935790591,-1.6446383868803134,5.204521222067871
801,N,0,23.4375,0.966644091721329,0.9248633599154874,0.3193428137512081,0.378698224852071,0.1880713964716592,0.09918987413332182,2.4902415812030103
801,N,0,23.4375,0.9193778938275179,0.8234052405280619,0.36396103896103904,0.39751552795031064,0.2453132510815575,0.10768440247402092,3.0362962191647176
801,V,1,39.0625,-0.4936195686801427,0.15438774802449845,0.4024297646165528,0.19277108433734946,0.6684764278875848,-1.7661626701739526,5.787289626081839
801,V,1,39.0625,-0.671649284498026,0.410875318469657,0.4963635270781993,0.14578587699316636,0.4094622502170985,-0.7691966938130664,3.0364773502438775
801,N,0,23.4375,0.9549580859052814,0.9167874275981762,0.3387935107891007,0.36260623229461764,0.22067099274519955,0.03830555635174188,3.0840535643695572
801,N,0,23.4375,0.9705118205908678,0.9228707486297192,0.36580280011915406,0.4338983050847458,0.15710368751797238,-0.08401681316943119,2.207157988768106
801,N,0,23.4375,0.91593985770723,0.8115276351558005,0.28258823529411764,0.35359116022099446,0.10889893609885024,-0.24268190957911426,2.0749055183010445
801,V,1,31.25,-0.5212261475711215,0.2746157596033871,0.34728152576145743,0.19601837672281786,0.7056372774219428,-1.8633567920794372,6.3570911880749605
801,N,0,23.4375,0.9575745741810296,0.9105058003185206,0.33282506237870807,0.34688346883468835,0.2065342078301911,0.07840137043476045,2.7967835737145723
801,V,1,31.25,-0.34067510922397104,0.07159576256524194,0.35870023913349275,0.2119205298013246,0.6333907488938394,-1.864982563355459,6.16334503076713
801,N,0,23.4375,0.9492691203683633,0.9019109104709843,0.27124010554089706,0.3516483516483517,0.17891641461423974,-0.06854932754930626,2.855946920539438
801,S,0,23.4375,0.9377494397937024,0.8401402607580777,0.3839030369058967,0.4012539184952979,0.21379504360049784,-0.013936269584840717,2.288107414292901
801,S,0,31.25,0.8791568341396837,0.7061857825643967,0.47239436619718317,0.35654596100278557,0.36690492382548223,0.1788054439059048,2.725972817246599
801,S,0,23.4375,0.9560501060190146,0.9094932653696468,0.3402332840479711,0.38554216867469887,0.25779147707813493,0.08582472444010346,3.1767379161925433
801,S,0,23.4375,0.9819225288367692,0.9436796274718148,0.2134718918242143,0.3468834688346884,0.08871923890467907,-0.37507048687045247,2.1875804593377226
801,S,0,23.4375,0.9912502332824812,0.9793959943082008,0.28250920861703316,0.3232323232323233,0.1143710737467785,-0.3785211147810897,2.254391895796178
801,N,0,23.4375,0.9730467198905438,0.9144491354606172,0.19917184265010354,0.30622009569377995,0.07575538516965345,-0.3468285467935647,2.0019070814351716
801,V,1,39.0625,-0.41919153206401016,0.14219404722282844,0.20812528370403993,0.16000000000000003,0.656898168538555,-1.721112898943972,5.341026827707875
801,N,0,31.25,0.8594566396352357,0.7369742599160358,0.30267192290845374,0.4129032258064515,0.17535232837043896,-0.061382195494636145,2.530962934702475
801,N,0,23.4375,0.896403105068815,0.7235661925953045,0.4222503160556258,0.37758112094395285,0.18759333364444547,0.0035014754347518764,2.1389763977391456
801,N,0,31.25,0.8562319648164209,0.7210740338218324,0.38053348467650405,0.47761194029850756,0.1569538962906163,-0.1857923087741938,1.993083668839728
801,V,1,46.875,-0.6215028172409968,0.2086769713613269,0.3259140431789319,0.13660618996798302,0.5512961282070489,-1.1465429017952262,3.4846516635703773
801,N,0,31.25,0.6306555321752637,0.3288412199663289,0.3228616307296873,0.3867069486404835,0.22731972571888256,0.0832254698321729,2.6390255493680463
801,V,1,39.0625,-0.6016823151916523,0.30024207346343207,0.4451021577238878,0.172972972972973,0.565652321737003,-1.3547703275417347,4.543775709494333
801,N,0,23.4375,0.9824997938383591,0.9667708263969136,0.317283950617284,0.41558441558441556,0.17262160392568238,-0.1319836900292518,2.5731490046863446
801,V,1,31.25,-0.2748046706026375,-0.012007644001269772,0.21389059618930548,0.14301675977653638,0.3379295492054562,-1.7900190909892582,5.32004765162055
801,N,0,31.25,0.7249059042129664,0.3781421854681766,0.3588577472236911,0.3626062322946175,0.1553559555398494,-0.1862477102898217,2.0976351126893045
801,V,1,54.6875,-0.6694579970452319,0.2889790344356791,0.39622519969080133,0.1527446300715991,0.5373702887297844,-0.9725312872789805,3.111115613362108
801,N,0,31.25,0.9628971170718434,0.9176801697072843,0.38695796094008605,0.43986254295532645,0.156908456424794,-0.41585753855961916,2.638883203055175
801,V,1,46.875,-0.6404997383991774,0.2653050548428806,0.36386104627214055,0.13403141361256554,0.6009874574150762,-1.2031621792918858,3.682848621640756
801,N,0,23.4375,0.584961705212877,0.1638173185111292,0.37595570788294225,0.41423948220064727,0.18191637069131167,-0.048789120914958295,2.086223300022353
801,N,0,31.25,0.4995406694853683,0.24688635916789622,0.2895583503948523,0.4491228070175439,0.18535866010574895,-0.12925038060379726,2.479038007835473
801,V,1,31.25,-0.42569963300909336,0.10072164965609352,0.2959776295977629,0.16537467700258401,0.5324615075078304,-1.7424605152742163,5.2955065468082605
801,N,0,23.4375,0.981773785596256,0.9551232513999555,0.32380702674357636,0.39751552795031064,0.1406131422381082,-0.18769614494741807,2.2477291492155027
801,V,1,39.0625,-0.4788207864028024,0.16029598176386448,0.26246294799245484,0.18470418470418476,0.803790791683295,-1.8905437221725796,6.186111702347586
801,V,1,39.0625,-0.13634853339266953,0.049067196035395715,0.3625989753143921,0.21157024793388446,0.5493902835799529,-1.091286120485529,4.212470122233328
801,N,0,31.25,0.902982803186529,0.7516301597720106,0.37511759172154274,0.35555555555555574,0.2115778591346245,-0.1792517255880041,2.355325631410237
801,N,0,31.25,0.9758476354691548,0.9492657020164406,0.3449579319595171,0.39875389408099693,0.1353819570017249,-0.23350748957533557,2.15651667338312
801,N,0,31.25,0.9726768382125281,0.9201836097096074,0.39168003950129615,0.4076433121019108,0.16673844219568804,-0.18706707438448256,2.207140024933706
801,N,0,31.25,0.9644948607622458,0.9067973310640867,0.3742184382067314,0.4063492063492064,0.18053435806998253,-0.14724824852448717,2.4921100365417947
801,N,0,23.4375,0.9724004196645838,0.922063957864183,0.3670610635114919,0.4012539184952978,0.2009442761338792,-0.010311523029949747,2.419491923291532
801,N,0,31.25,0.9759647265510817,0.9390723000832435,0.26810495626822156,0.38208955223880603,0.1140117558385767,-0.13584124771955422,2.079268365372552
801,V,1,31.25,-0.38273355713152085,0.013654535515443786,0.25107025938050875,0.1598002496878902,0.5528839445698046,-2.0428769427229256,6.36490448392104
801,N,0,31.25,0.8890703241869877,0.7292044768148063,0.3924080385474204,0.39628482972136236,0.15067037215378132,-0.2428741632551011,2.0737006661653643
801,V,1,46.875,-0.5941828611494742,0.20496419986934827,0.33207169892165966,0.14849187935034808,0.5763585716253741,-1.1878859997238458,3.408738453379984
801,N,0,31.25,0.9670591567969179,0.9460836199964291,0.2805410736931098,0.380952380952381,0.15699974895886712,-0.2694261340071771,2.710259273372583
801,V,1,46.875,-0.588642852349789,0.24068340331700602,0.36462093862815886,0.13502109704641352,0.5022048506454024,-1.1603869123397186,3.5123773514778502
801,N,0,23.4375,0.9622564205175467,0.9089650904816121,0.36743648960739034,0.3764705882352942,0.1132930995944695,-0.2941305833825402,1.9857003413099126
801,V,1,31.25,-0.3792548250275471,0.04894755538812141,0.27891969407265776,0.17438692098092645,0.6153607351697549,-1.8901661960432496,5.732856801367465
801,N,0,31.25,0.9479651311240181,0.890233500236193,0.2741269245212167,0.5446808510638298,0.19302719316524278,0.1507788432036851,2.642425476816719
801,V,1,46.875,-0.6220961900497967,0.2320713016440251,0.34244897959183673,0.13487881981032668,0.5898732435271631,-1.2066329252777201,3.598052242033871
801,N,0,23.4375,0.9879685658218376,0.9445470785701022,0.40467906418716254,0.3950617283950618,0.15546045972285144,-0.2157449898512164,2.177375366182971
801,V,1,46.875,-0.6644284846199787,0.342802655923923,0.42268178785857236,0.15292712066905623,0.4835076399168297,-0.9353252406502028,3.190410351535701
801,N,0,23.4375,0.9781417223304025,0.9646158947117772,0.34652777777777777,0.4688644688644689,0.15624328085608097,-0.1777379826349285,2.4144180646355613
801,V,1,31.25,-0.39324550042688056,0.07077392961477053,0.2753812636165577,0.15782983970406916,0.5239143049621279,-1.7738804546575209,5.509606001574346
801,N,0,23.4375,0.8445377225439518,0.7578206409817447,0.29889091674856094,0.43389830508474575,0.11923492868041756,-0.24203548872799216,2.057599441904974
801,V,1,39.0625,-0.6564522751612184,0.37764380253392055,0.4605972898302855,0.14174972314507206,0.45695460353091494,-1.0465296524776706,3.5192880106602367
801,N,0,31.25,0.5348734416235806,0.21866361571006884,0.2849831481712645,0.3710144927536233,0.16709793100486378,-0.1899294110062647,2.333217957816266
801,V,1,39.0625,-0.5796019581897651,0.2694737057091318,0.4087150127226462,0.1513002364066195,0.4746569553322695,-1.2749637042139457,4.041067373191069
801,N,0,31.25,0.5390681748298277,0.273753961441919,0.24385683760683768,0.3798219584569734,0.15052796115109393,-0.2547968080524097,2.4502067435080357
801,V,1,31.25,-0.38149698789333736,0.07525474223120845,0.30071744771790565,0.19335347432024172,0.6080466764687521,-2.099729933127663,6.970234539696993
801,N,0,23.4375,0.9880902618305772,0.9746202410327953,0.31256521091071693,0.40125391849529785,0.15953653368118142,-0.14814627277606404,2.66542212097518
801,V,1,46.875,-0.6517104854519206,0.26231712671352975,0.34454681808442256,0.1386782231852655,0.6185658362994456,-1.2216885822199353,3.695003323323429
801,N,0,31.25,0.9872777964517246,0.9736643280758271,0.3059161401493395,0.34782608695652173,0.14761040563231093,-0.20370091510378904,2.1885590531034023
801,N,0,23.4375,0.9800415115663866,0.9614285639474554,0.3320194057004245,0.435374149659864,0.16038108791903857,-0.15129196536068257,2.483382769089642
801,N,0,31.25,0.9080148805928633,0.8099456646929882,0.32335431195781594,0.45229681978798586,0.17793894098775817,-0.101795232610093,2.607967391033794
801,N,0,31.25,0.9752827566388603,0.9316468239274982,0.38107202680067,0.43986254295532645,0.12131748536858027,-0.31711438991514423,2.091560885743815
801,N,0,31.25,0.9627961382482225,0.9261377863119163,0.28788059701492535,0.3742690058479533,0.12583046581287086,-0.2747375812837559,2.0859923111959837
801,V,1,23.4375,-0.32251765951827227,0.05987140141507741,0.2921482187537233,0.17802503477051462,0.49608459111655023,-1.7040816452279572,5.5731636727070155
801,N,0,23.4375,0.9741274531347457,0.9350049032341996,0.3140355831685964,0.4142394822006473,0.16610348556005847,-0.06922272727869175,2.371854209857453
801,N,0,23.4375,0.9763980331278299,0.9256026793432383,0.3844354943484474,0.39024390243902435,0.13167205097217438,-0.4321606837002067,2.3708383719618906
801,N,0,23.4375,0.9288211649183664,0.6625711655878183,0.5339547270306257,0.4475524475524475,0.22811428740661768,0.0346342200434127,2.718230407029586
801,V,1,31.25,-0.372514212319931,0.1146731790448217,0.24976675996268155,0.18285714285714294,0.6942846406136699,-1.831819877815017,5.986084452544972
801,N,0,23.4375,0.9839641242760656,0.9653119760687728,0.32781649245063876,0.39628482972136225,0.17551695484035926,-0.08939221440362491,2.554726163831886
801,V,1,31.25,-0.42587940006317515,0.13873517228686505,0.24663885025498378,0.1681997371879107,0.6169169767507363,-1.7422663469655442,5.528506196089896
801,V,1,31.25,-0.4639982517652701,0.1332589965286275,0.3811843117149448,0.18364418938307037,0.6072251434738215,-1.8543203807113149,6.046742927213499
801,N,0,31.25,0.9824261009357045,0.9670107612735606,0.2840973401245048,0.4025157232704403,0.1493511555667494,-0.18853180352517332,2.499874017323491
801,V,1,46.875,-0.6628746380592306,0.3098660560329174,0.39162543916254394,0.1454545454545455,0.578643115051914,-1.1787451386247736,3.620098058040821
801,N,0,23.4375,0.971696302425061,0.9314957836025513,0.30939019827908715,0.3975155279503106,0.11542206410871814,-0.23905007113546253,2.1795326250914764
801,V,1,46.875,-0.673806876243436,0.3366475399569769,0.4150203589202231,0.15165876777251208,0.5753597479340344,-1.1886857746808117,3.747836424426989
801,N,0,31.25,0.9639086260195114,0.9523857586067146,0.2943980929678188,0.41025641025641024,0.14784128191716991,-0.3326143872163811,2.542086601762639
801,V,1,31.25,-0.3534124044882501,0.0978908500021956,0.2647347740667977,0.18311874105865533,0.6291888886307723,-1.6799376837872657,5.554646948949289
801,N,0,23.4375,0.9849640477720537,0.9615364731402711,0.3456104944500505,0.3855421686746988,0.11877133962643102,-0.2677229473616029,2.295924286841816
801,V,1,31.25,-0.342890269435339,0.06218720741873035,0.31454590204282545,0.18470418470418482,0.5717151762406152,-1.6330207691640173,5.470571277465284
801,N,0,31.25,0.9518454646997236,0.9121001792664885,0.2650269630409049,0.3902439024390244,0.18093416960770628,-0.07992167855146495,2.554281762941957
801,V,1,31.25,-0.46133187338492754,0.17137230627983577,0.36573311367380557,0.19783616692426592,0.5874811018194777,-1.4700302137809742,5.0769017114121056
801,N,0,23.4375,0.9523679478310203,0.9056257868334429,0.2881260551491277,0.3938461538461539,0.12176514649040548,-0.3820987150221678,2.4736580278286815
801,N,0,23.4375,0.9864902079254741,0.9408835808742706,0.40147669589293955,0.375366568914956,0.15688131173623843,-0.3122485272795575,2.2371551428844736
801,N,0,23.4375,0.9728320864088168,0.9391185239292916,0.33279716905259776,0.419672131147541,0.17390335930009246,-0.19383966151541152,2.866338519027493
801,V,1,39.0625,-0.5188554172562927,0.20270446031625797,0.39863325740318906,0.18285714285714294,0.7135467559161103,-1.6394326582352468,5.410218846858648
801,N,0,31.25,0.9571120908083847,0.9112873269783377,0.3083417764268828,0.3667621776504298,0.1311222531975614,-0.23458426961023854,2.1058162474442192
801,N,0,31.25,0.855749924689721,0.667478637544333,0.42538175285512636,0.41693811074918574,0.16686258563316153,-0.08346513500433478,2.200979997555057
801,N,0,54.6875,0.1968311046728679,0.11412139969462223,0.3965031020868584,0.4723247232472325,0.272633114302706,0.011222077149828261,2.019582537767711
801,V,1,31.25,-0.5032500859951589,0.19450897478738638,0.37496858507162606,0.1815602836879434,0.7027789270268257,-1.7418805095473897,5.935663591764262
801,N,0,31.25,0.977696886381252,0.9539764720691598,0.32233352975839713,0.4309764309764309,0.15370481306846,-0.22244811850975788,2.4529788880102577
801,V,1,31.25,-0.43344774162157523,0.101895186453975,0.186046511627907,0.15880893300248144,0.6266569598698093,-1.9391768173748416,5.914657225632751
801,N,0,23.4375,0.9879417257909867,0.971931551948879,0.28571428571428575,0.41693811074918574,0.13609665186720526,-0.1273246808894204,2.3384820242507285
801,V,1,46.875,-0.6387014216756011,0.2922455323383437,0.3692261547690462,0.14128035320088306,0.5908000863946101,-1.2286821196735545,3.817567386470204
801,N,0,23.4375,0.9657295168255128,0.9332534068830429,0.21729551087854587,0.3950617283950617,0.11092018236691709,-0.2981213463345309,2.3740553857271154
801,V,1,39.0625,-0.41404711096749763,0.13876621350985557,0.21693548387096778,0.18233618233618243,0.7014183067087251,-1.8782296838233834,5.9949941613277975
801,N,0,31.25,0.9266637418893161,0.834607962183834,0.3687679083094556,0.39875389408099693,0.2079856119490266,-0.1452990868996787,2.665335941204213
801,V,1,46.875,-0.676997145431891,0.3341475770281731,0.3951244286439818,0.13588110403397036,0.6173713130366562,-1.2549289388949456,3.9150536255511397
801,N,0,31.25,0.9635068889288348,0.9239040310819269,0.36152570480928686,0.3615819209039547,0.2245456077841005,-0.08397778316323373,2.649819485883035
801,V,1,46.875,-0.6748262991818846,0.3551849725306871,0.42350871313672916,0.1545893719806764,0.614319959768897,-1.293663079085449,4.291933373819813
801,N,0,23.4375,0.9622638679864824,0.9277976949451663,0.24434331942864365,0.37426900584795336,0.14148122976251917,-0.20303966357091233,2.4131991999258715
801,V,1,31.25,-0.46601552123327283,0.21981717570361936,0.3905064839735748,0.19875776397515532,0.5882043060203147,-1.5740500272405893,5.418329495756212
801,N,0,23.4375,0.5296550557917625,0.19587376339742163,0.38760107816711586,0.40894568690095856,0.18337641816706832,-0.15729945672943593,2.485649615809151
801,V,1,39.0625,-0.5862675408229154,0.22461521604504964,0.3447432762836186,0.13168724279835403,0.5424477791379391,-1.3830542585170111,4.221766453530915
801,N,0,31.25,0.8874830358646001,0.8082554334073964,0.30816591056383663,0.367816091954023,0.2897911720529095,0.37299218122264866,3.4932731845149134
801,V,1,46.875,-0.7036283648875862,0.42035530892188044,0.464063345966432,0.13516367476240765,0.5455920128294283,-1.1312086142950653,3.7782716872876585
801,N,0,23.4375,0.9333172977708082,0.9123091458147461,0.3132793017456359,0.45878136200716846,0.1422114273331407,-0.2897265531253613,2.3960639785443214
801,V,1,31.25,-0.389128236425423,0.11232735506744582,0.25254323499491355,0.1760660247592848,0.5918711903775874,-1.8228390028015071,5.881053378311735
801,N,0,23.4375,0.9836730126721127,0.9655811630853621,0.3260754115772703,0.39751552795031064,0.12174538757595472,-0.3406032643677621,2.3199064982359796
801,V,1,31.25,-0.25498278392818624,0.07563851077913349,0.21654719235364397,0.19631901840490806,0.6876952793530924,-1.9919300615480573,6.62481884233509
801,N,0,23.4375,0.9822000616298618,0.9315673994270948,0.40742677824267787,0.4280936454849499,0.14097524749398746,-0.20409909284883565,2.0661541273586472
801,N,0,23.4375,0.9757154844210182,0.9322668316916143,0.3782845810609816,0.423841059602649,0.13403761874040626,-0.14317730911397986,2.0240832706252543
801,V,1,31.25,-0.4748824502406627,0.15973777866961458,0.38909426987061,0.17582417582417587,0.5757589645493382,-1.6540059715712432,5.533650534333784
801,N,0,31.25,0.9410630943998864,0.9005221706811417,0.2842271293375394,0.42809364548494977,0.14513446496250298,-0.3261791969554232,2.5761047880240704
801,N,0,23.4375,0.952929773512054,0.9160486049885697,0.3011848341232227,0.3359580052493438,0.14289403838301346,-0.28629735937294476,2.428688561762715
801,N,0,23.4375,0.9720221439538506,0.9290948693083712,0.35019347705914866,0.4,0.16794235398012922,-0.17451093429947936,2.34730687634161
801,V,1,31.25,-0.39603673359172265,0.12221520767071885,0.2594049668059995,0.18002812939521806,0.6463277292119869,-1.7467403100629464,5.6870758360095754
801,N,0,31.25,0.9442987932289562,0.8898216018784585,0.2567849686847599,0.3248730964467006,0.10120928022902548,-0.35956924285430675,2.1262414593951604
801,V,1,46.875,-0.6493011407906862,0.31125554565273994,0.40178909862785234,0.1479768786127168,0.5996650266760722,-1.2791924170813718,3.904759844251249
801,N,0,31.25,0.9353331634647595,0.8831339157964383,0.3146206045650832,0.39024390243902435,0.1582725468464056,-0.4354277712132798,2.807602346084765
801,N,0,23.4375,0.5009722254571392,0.1766529922970788,0.3943012211668928,0.3764705882352941,0.2338260866997924,-0.031583835964502156,2.6338753665638874
801,N,0,23.4375,0.9477545593501029,0.8847711688287359,0.31252921926133703,0.3798219584569734,0.11953400709445054,-0.22232540198628747,2.0592136879427634
801,V,1,31.25,-0.44761719429308117,0.18953961472948655,0.3232876712328767,0.19906687402799386,0.7132244218447322,-1.76749713232698,6.135332528869075
801,N,0,23.4375,0.9814082821191854,0.9660085753860209,0.29188522061092254,0.40378548895899047,0.1711694840908324,-0.07277723497816703,2.607183887822655
801,S,0,23.4375,0.9434971696599941,0.8688532825532566,0.27029689038975657,0.38670694864048344,0.13645685346010236,-0.26624094276347093,2.4053388573610825
801,N,0,23.4375,0.9531450002565033,0.9048941084983697,0.2913722267871816,0.4295302013422819,0.2075318736339701,-0.05307513524212615,3.0104131619733954
801,V,1,39.0625,-0.4875780204108183,0.22144650481549696,0.328515111695138,0.20480000000000007,0.6999821809157609,-1.588003094865742,5.514150202082924
801,N,0,31.25,0.9729732150813194,0.939474098778934,0.3390923156266117,0.3867069486404835,0.16808738136022322,-0.16423645487450583,2.334710114726179
801,V,1,23.4375,-0.2884204911735406,0.02335517511444022,0.3241911862601518,0.1993769470404985,0.47491043824487206,-1.6902962751843067,5.677265657722686
801,N,0,23.4375,0.707668096717026,0.3965076563676351,0.28048939216451907,0.36994219653179194,0.15084431891176808,-0.21257418014288892,2.5549032283238815
801,N,0,23.4375,0.6513285836594309,0.19974973906283014,0.43142144638403995,0.37982195845697325,0.18769121700669136,-0.1812891736613592,2.436711198884166
801,N,0,23.4375,0.4299048835672928,0.14608347739416955,0.32507532641446274,0.4812030075187971,0.1750656962486236,-0.17689651425143754,2.458796637984811
801,V,1,46.875,-0.6064759647010936,0.25892367939756034,0.37374497991967875,0.20645161290322583,0.7714006116734129,-1.6142540013713416,5.216345528786624
801,N,0,31.25,0.5386999178477095,0.24403391322412232,0.40663121676571795,0.45390070921985815,0.19897001437277437,-0.18729757810712117,2.4374735508046683
801,N,0,23.4375,0.9599811677896715,0.9350254779379789,0.2847214797391211,0.29425287356321844,0.06968719755480833,-0.5267483397267215,2.111946003815039
801,N,0,31.25,0.9398665690814475,0.9290265023921087,0.2636373265543904,0.30695443645083936,0.08944086203797091,-0.46041065258201336,2.1177735957270247
801,N,0,31.25,0.9111149175194037,0.9027276336837822,0.3027295285359802,0.3764705882352941,0.149409859799127,-0.38648781190981163,2.617103508115855
801,N,0,31.25,0.6264201967804897,0.36875892558707735,0.2752109280835676,0.3615819209039548,0.12492319944304138,-0.481117892542331,2.2780561072244323
801,N,0,23.4375,0.6566392084650927,0.41328210822012246,0.23960948396094842,0.3636363636363637,0.12061297283015548,-0.48312135460008504,2.474155331082572
801,N,0,31.25,0.9126213598726501,0.8993333566067722,0.2856282012654414,0.3914373088685015,0.10384680942400443,-0.5486706187574846,2.4661972013943374
801,N,0,23.4375,0.9148749670382306,0.900922776267551,0.24091896926420367,0.39506172839506165,0.10569465159219206,-0.5173057304027112,2.5796958275777406
801,N,0,23.4375,0.9171390303584341,0.8979830096315962,0.2950279046169457,0.3615819209039548,0.10076846860940837,-0.46074340845960166,2.287093732245582
801,N,0,23.4375,0.8590614789418892,0.8284488035928618,0.3630314232902033,0.4338983050847458,0.2022847092019529,-0.2603520022610532,3.1685338276918844
801,N,0,23.4375,0.8568674557943722,0.8270607607815997,0.35470668485675305,0.47058823529411764,0.15701509920552387,-0.34552432832473595,2.60460266974281
801,N,0,31.25,0.8529129447654435,0.80058470641211,0.3613793103448276,0.48120300751879697,0.1626809825931349,-0.31863651697408074,2.633225887937035
801,N,0,31.25,0.7497477276020131,0.5464406283038523,0.2546490701859628,0.39628482972136225,0.14080583394936796,-0.44565886316800724,2.5052167974487096
801,N,0,23.4375,0.8736603093331865,0.8319075799910004,0.21675446485930874,0.3359580052493438,0.0875013956640088,-0.4188023501571804,2.371483106360033
801,N,0,23.4375,0.8532588802151798,0.8127598958203567,0.2439516129032258,0.3890577507598784,0.11992534407003722,-0.3237516849946353,2.530774739977833
801,N,0,31.25,0.819212825183108,0.7552260222598473,0.3522210563133963,0.4866920152091254,0.17292756075053828,-0.2571394608657291,2.6516538888601877
801,N,0,31.25,0.785210447291724,0.5832198541456599,0.27299880525686976,0.4037854889589907,0.16721370127243879,-0.3446759243513121,2.477419648299848
801,N,0,31.25,0.866316309945471,0.787915744433625,0.2685241513566127,0.3386243386243385,0.1050070667806763,-0.39472687962794173,2.2502284745147048
801,N,0,31.25,0.8428784461216362,0.7778102023243946,0.2957124842370744,0.4413793103448276,0.11966342457734112,-0.35662316151453494,2.3879239284414457
801,N,0,23.4375,0.8493875239905662,0.7644337152196649,0.21932596103212212,0.3555555555555556,0.09930509215582504,-0.40293870293796175,2.389640164646672
801,N,0,31.25,0.8548990399112206,0.7997070285918971,0.26163723916532905,0.4368600682593857,0.1127265179409429,-0.37189072034043813,2.3644715163100445
801,N,0,31.25,0.8570721814048177,0.7806026742193379,0.2656826568265683,0.4129032258064516,0.11786730821360802,-0.3582550532957356,2.3770595126411957
801,N,0,23.4375,0.7399894153819864,0.5308267859738197,0.2656989586620385,0.42105263157894735,0.15679118187385183,-0.305756494249418,2.5026023095713756
801,N,0,31.25,0.7679467792650568,0.5692505163797539,0.2245313181223659,0.392638036809816,0.14739939433349328,-0.272364769889488,2.6989109220200254
801,N,0,31.25,0.735352274829434,0.47090106790325686,0.3352272727272727,0.43097643097643096,0.22924573831102965,-0.12784430556962928,2.8496864150494967
801,N,0,31.25,0.8181778916685029,0.7113358930815645,0.2731729738011337,0.40125391849529785,0.15372442375121237,-0.29836748239752653,2.775482408532155
801,N,0,31.25,0.8039084548507412,0.6837250159925239,0.27940138359452205,0.380952380952381,0.13972365559241845,-0.37965118549904475,2.5878961939348173
801,N,0,31.25,0.8435925791065305,0.7484670533526139,0.28141025641025647,0.460431654676259,0.13463640122873347,-0.2464046451147842,2.411807143331209
801,N,0,31.25,0.8740816173948103,0.8019459982446281,0.28140627367783005,0.41693811074918574,0.14580265799408967,-0.2653788045161958,2.4665711791586684
801,V,1,39.0625,-0.49316471633074027,0.1363684348543598,0.3052882127703612,0.14763552479815467,0.5788017442567718,-1.6646849610071703,5.168143788229086
801,N,0,23.4375,0.7692235110836599,0.6358712870247607,0.3117489986648865,0.43122676579925656,0.1495143035024424,-0.16903881784539315,2.5474511156423274
801,N,0,23.4375,0.7802273227418219,0.6437415417987148,0.26020558002936856,0.4183006535947713,0.11812642132141522,-0.3165241308237087,2.408149838108201
801,N,0,31.25,0.7384005497030236,0.5786488991112894,0.2855714761746085,0.46886446886446886,0.13455328926275933,-0.32677836398762283,2.539316184353513
801,N,0,23.4375,0.7277204873363419,0.5507168742382146,0.31351147911178023,0.44290657439446374,0.19725761430958524,-0.1024391787182594,3.0485222811665746
801,N,0,23.4375,0.7821099486559042,0.6331026376138579,0.2595837897042716,0.3962848297213622,0.10724262479335234,-0.29603046773707814,2.215557918397051
801,N,0,23.4375,0.7870391977473236,0.6469059504979996,0.24103242885506287,0.3878787878787879,0.11688443959718729,-0.27134288353726005,2.319137822860452
801,N,0,23.4375,0.7797198119461715,0.6225977464239495,0.2671664167916042,0.4295302013422818,0.13636957554009568,-0.23848609316972633,2.4397637453024323
801,N,0,23.4375,0.8069127481384563,0.6664402302869354,0.25513499547862034,0.3775811209439529,0.10784909535673784,-0.28731108459190896,2.102856100130646
801,N,0,31.25,0.8103622380349454,0.668985659393244,0.27180887372013657,0.38905775075987853,0.13116122621010168,-0.25065325408670197,2.3210847964890724
801,N,0,31.25,0.7834002209725106,0.5911095339835748,0.3187950471262244,0.48301886792452825,0.21465704926633947,-0.09042421791898538,2.9746757411107536
801,N,0,23.4375,0.769642116606247,0.5588607912033187,0.31573896353166986,0.4210526315789474,0.195429157182753,-0.015439473402710322,2.830046101790919
801,N,0,23.4375,0.723235375726746,0.4110815301805729,0.3988439306358381,0.46545454545454545,0.2560420359584705,0.036751197597005715,2.832874070850422
801,N,0,23.4375,0.7610619413035592,0.5706468253791956,0.34597156398104273,0.4266666666666667,0.2609908191381368,0.15254453179322658,3.552398583621789
801,N,0,23.4375,0.8150005989150637,0.6490121820517701,0.2723284236916327,0.48484848484848486,0.11021769188954517,-0.24991382262396367,2.239479093042306
801,S,0,23.4375,0.6588153199435898,0.3665872663006744,0.2975886524822695,0.3798219584569733,0.24236793089330094,0.08900644165499806,2.7818340254182146
801,N,0,31.25,0.8061974720367742,0.6382889305427276,0.3100806451612903,0.44599303135888513,0.28331481299909583,0.35139792529272157,3.4958358824326865
801,N,0,31.25,0.8387585750058929,0.6216021270268289,0.34613990576295756,0.5224489795918367,0.19823241414068685,-0.008903879277942483,2.6107811247598556
801,N,0,31.25,0.8549220612505171,0.7250100008332676,0.25085096936510287,0.4491228070175438,0.10249409096115292,-0.25211669638274925,2.2006357503219376
801,N,0,31.25,0.7138477632695449,0.37430748789501667,0.3822739480752015,0.45229681978798597,0.3030520736157725,0.2670982086957936,3.2487039584948176
801,N,0,23.4375,0.8068502647036312,0.6264755983272993,0.2925353059852051,0.5019607843137255,0.17721928702966555,-0.11586141920317965,2.721529097277364
801,N,0,23.4375,0.7741781117515191,0.5647942232017069,0.3214154072981939,0.46715328467153283,0.19598909715111132,-0.0384349501281605,2.930112689937338
801,N,0,23.4375,0.7804775446667599,0.5930377038248259,0.27202112785459065,0.42666666666666664,0.1464286692672382,-0.23020781380079902,2.6531856299952317
801,N,0,31.25,0.6247675166564159,0.251786491607983,0.4449392712550608,0.47583643122676583,0.36774644387850186,0.43861210050398064,3.2334128173802985
801,N,0,23.4375,0.768338119437433,0.5901204855087532,0.24980149277433703,0.44444444444444453,0.1386321532929033,-0.22686234702291413,2.599285143644558
801,N,0,31.25,0.7930133902006632,0.5975230085913118,0.35252027349340115,0.42384105960264895,0.2330088439778986,0.05516662775312289,2.6771332999037907
801,N,0,31.25,0.7350304076061105,0.43856936336566466,0.45101733232856056,0.43097643097643107,0.3582554429323622,0.238405854477725,3.1155746577007593
801,N,0,23.4375,0.7436683231669711,0.5767526642587054,0.2834400131298211,0.43986254295532656,0.16140270982419816,-0.08555625679772555,2.7000347709354244
801,N,0,31.25,0.7663642531539302,0.5552308842706237,0.38113529662825435,0.43389830508474586,0.29260330618940306,0.21135352783482145,3.5919975301208495
801,N,0,23.4375,0.7706702384961167,0.6014586449907501,0.310515172900494,0.4475524475524476,0.1767469966449006,-0.03476590519471546,2.791781070680206
801,N,0,23.4375,0.8279734018758409,0.5652208451794443,0.3932411674347158,0.39628482972136236,0.30783630452010463,0.07040414280871417,2.889918072681572
801,N,0,23.4375,0.7860760727155178,0.5268814047572837,0.3024225894432857,0.496124031007752,0.214963498806093,0.11351309828014028,2.6729357130950295
801,N,0,23.4375,0.7843889660720311,0.5881415312472783,0.26342710997442453,0.47940074906367036,0.18770679950673358,0.09865956489042349,3.399973478253627
801,N,0,23.4375,0.7609706717849013,0.6017261066755175,0.24520383693045567,0.41967213114754104,0.13698088064164968,-0.12398356533825398,2.5725238191476123
801,N,0,23.4375,0.7255932455073505,0.5378867133816875,0.3100381194409149,0.3867069486404835,0.1987783348889034,0.05998692887220877,2.9111556371961154
801,N,0,31.25,0.7518667417968339,0.5431845766656052,0.38416307330458643,0.4475524475524475,0.27529276024289134,0.3289118284032059,3.0242980652741083
801,N,0,23.4375,0.8498229790830965,0.6775023164775678,0.23856209150326793,0.44094488188976366,0.17689108706196674,0.04007919848428213,2.471332939513209
801,N,0,23.4375,0.8069167345345737,0.5063652444251451,0.4124248496993989,0.45390070921985826,0.34827031427271155,0.21901827769139212,3.0685726274726437
801,N,0,31.25,0.717048159399391,0.2835998678629044,0.3950586473671076,0.37982195845697336,0.21142227628735322,0.08008080044143107,2.18881667961406
801,N,0,23.4375,0.727212404004644,0.5685925410838223,0.3386097728836888,0.4295302013422819,0.2086431026610729,-0.04167957080829132,2.7475499416287557
801,N,0,31.25,0.788465172717202,0.646343705736317,0.30554361839278044,0.40634920634920646,0.1792460274366448,0.07754188767474161,2.439226417683574
801,N,0,23.4375,0.7545212289428042,0.5950992450871005,0.3078449053201082,0.4280936454849499,0.19660087332668308,0.08163413105453966,2.9221043212200213
801,N,0,31.25,0.7857079680651861,0.6202532632090864,0.3236613819922225,0.48120300751879697,0.1800992444283071,-0.0065029870615497185,2.279451780127157
801,N,0,31.25,0.7977263801405143,0.6524050465798372,0.31891271056661563,0.4620938628158844,0.26718680037070586,0.3571892247567823,3.1451907898797096
801,N,0,31.25,0.8181378369907288,0.6541086476451379,0.3035019455252918,0.45070422535211274,0.17315547727932273,-0.024954538237630382,2.4708945603325843
801,N,0,23.4375,0.7857916056610939,0.6052398446567704,0.34903249361080685,0.45390070921985815,0.20330692171847403,0.05206342905261115,2.6218828757416257
801,N,0,31.25,0.795777020998297,0.6285304195225521,0.32501248127808285,0.445993031358885,0.1950446392092817,0.05784638733192532,2.5340332052483463
801,N,0,31.25,0.7939500634086746,0.6382184828202653,0.28186453022578295,0.4252491694352159,0.19254120698725652,0.09859803849982092,2.5184935410400593
801,N,0,23.4375,0.7747984350063871,0.5964507623647173,0.31967721911855995,0.4429065743944637,0.24315698032420135,0.2525160050010612,3.3634886465292086
801,N,0,31.25,0.781366856991695,0.5782340020579748,0.3582728457100317,0.4444444444444445,0.2323823789746034,0.2617243582727849,2.8191922072698286
801,N,0,31.25,0.739441338942491,0.5385626523676066,0.32083662194159435,0.5400843881856541,0.21290904688328763,0.08717667794041627,2.6852276850748766
801,N,0,31.25,0.7766206374854214,0.5847689510485331,0.3336675020885547,0.4115755627009646,0.22903843040444882,0.2347523467723907,2.783589281206417
801,N,0,31.25,0.717541051042682,0.42514298119861677,0.4613232060763542,0.4155844155844156,0.3483347384604862,0.37089728200412414,3.4152216908718183
801,N,0,23.4375,0.7333691621332811,0.5343188422745188,0.37471051412691064,0.39628482972136225,0.35159779007071346,0.6346990044288,4.706206674773975
801,N,0,31.25,0.7636432562762087,0.5950724131584713,0.2940801021222275,0.481203007518797,0.1755777816785159,-0.0880178800884011,2.492828685896956
801,N,0,31.25,0.7996284407024298,0.6291341494581079,0.2770258076159538,0.4571428571428572,0.19052964113292387,0.017990001821385437,2.8184522769598184
801,N,0,23.4375,0.7620489312933267,0.5839409963595741,0.3101936426744611,0.4368600682593856,0.2700715622896245,0.36560631261644005,3.3969081485379546
801,N,0,31.25,0.7695911156114066,0.4652344941412316,0.4542095539720242,0.38787878787878793,0.5364288306027599,1.4407228431927976,6.586249643721823
801,N,0,23.4375,0.7981267360011834,0.6162861188479775,0.33587059942911507,0.445993031358885,0.3017925473672807,0.5262795214870215,4.127406062515816
801,N,0,23.4375,0.7781328205366933,0.6082880347630394,0.2928870292887029,0.46715328467153294,0.20591489727922105,0.14045415763199287,3.2126139203217736
801,N,0,31.25,0.7968422939250905,0.676318321120784,0.3602771362586606,0.5289256198347109,0.21672566639436022,0.27289852833420103,2.348101151415144
801,N,0,31.25,0.6578046437994655,0.3734442687075961,0.446551724137931,0.41290322580645167,0.5066523102384263,1.1331534676270116,6.159722390273936
801,N,0,23.4375,0.7054051384047944,0.4322331517850288,0.4284204965662968,0.3764705882352941,0.49997603099410365,1.2828123806703988,6.831748908500673
801,N,0,31.25,0.8043122486310311,0.6221870866420403,0.3147120719341879,0.4758364312267658,0.21597227336967773,0.21458855926510204,2.8108616898040726
801,N,0,31.25,0.7805705448147825,0.600260356246762,0.28153413787402876,0.4155844155844155,0.2035294955099291,0.18953199249248753,2.845039377657307
801,N,0,31.25,0.7616827907437027,0.5514813168092388,0.36569313039901274,0.4429065743944637,0.2909100607794963,0.4182778713000533,3.348193095840856
801,N,0,31.25,0.7724101735740475,0.6070484196003286,0.31252549979600164,0.547008547008547,0.24741216726767856,0.35452299222517464,2.9933267642627173
801,N,0,31.25,0.7811610791783942,0.6117190537248727,0.29465592972181553,0.5517241379310345,0.19073499226483584,0.10955712696402953,2.4666742341703642
801,N,0,23.4375,0.7606486560085319,0.5973521051428411,0.32122213047068543,0.4102564102564103,0.20908842173899825,0.23117914853620505,2.8325949698036466
801,N,0,23.4375,0.8017030263380355,0.6248360481863131,0.31994459833795014,0.39751552795031053,0.33484804356751097,0.8640317820810098,5.107516156283435
801,N,0,31.25,0.7866471415176696,0.5754236205477812,0.4034552845528455,0.540084388185654,0.37165409358964546,0.6971965946394781,3.8225397520072035
801,N,0,23.4375,0.7433483279221689,0.45672958984403206,0.45596974608319824,0.4491228070175438,0.49943598128906724,1.1717600603670244,5.318776752117779
801,N,0,23.4375,0.7462490034013189,0.5364738354744664,0.3938053097345133,0.39875389408099693,0.3618705383648841,0.633010660092287,4.397811672585795
801,N,0,23.4375,0.7717041824172367,0.614247978413382,0.34004474272930646,0.42953020134228187,0.29697206867876536,0.554984056705469,4.075605412510382
801,N,0,23.4375,0.7194044827558763,0.5128904200398331,0.429473173100267,0.39875389408099693,0.41088610438411716,0.8518023701898302,4.863640369475928
801,S,0,23.4375,0.8317812020386541,0.7450967192806187,0.3751483973090621,0.4444444444444444,0.2488766773005833,0.3636358116138587,3.087585709282045
801,N,0,23.4375,0.7857245170907435,0.6486860893824368,0.347210994341148,0.41423948220064727,0.2818850437887934,0.5216532567608826,3.646038100002972
801,N,0,31.25,0.7825584972765488,0.5955477524163123,0.367745004757374,0.5224489795918366,0.3291225943576375,0.5750166718721542,3.5657371286941615
801,N,0,23.4375,0.7679897531471535,0.6043339071240923,0.3275932759327594,0.4904214559386974,0.23888809813410622,0.3247004823600449,3.0788381471927124
801,N,0,31.25,0.7858213465234419,0.5796989486677016,0.3519716252868767,0.435374149659864,0.28166775545981526,0.470687412382368,3.544226976606698
801,N,0,23.4375,0.7540028822234617,0.5596440578440969,0.3453085376162299,0.4012539184952978,0.3102108716461742,0.5519752893160211,4.095314075254594
801,N,0,23.4375,0.7756973235810319,0.5994182102701261,0.335361488904796,0.39875389408099693,0.24060585311721586,0.26278319408465783,3.1427463059689997
801,N,0,31.25,0.7573936112043527,0.5546946338893506,0.3641593863200511,0.498054474708171,0.2890033647067208,0.4204130992406095,3.190417932152904
801,N,0,31.25,0.7815135772047409,0.5824708958312053,0.3900740095777101,0.5161290322580645,0.31085710112113357,0.4363290469237819,3.195510760978153
801,N,0,31.25,0.736331569626267,0.45278371932229855,0.4508405501782985,0.43986254295532656,0.4105200302415956,0.9479219668183276,4.551470071635358
801,N,0,31.25,0.7781118604763095,0.5944044268529073,0.36815533980582527,0.4776119402985075,0.27669618231964005,0.38961566761718575,2.9175997074540714
801,N,0,31.25,0.7687876339528379,0.5822355672180114,0.36044880785413747,0.45551601423487553,0.22312907636211418,0.21022381835673715,2.3842858286373643
801,N,0,23.4375,0.7589127644173568,0.5781605074008473,0.33473442873519293,0.46209386281588444,0.2525289737850954,0.3335452822845977,3.0746960491641175
801,S,0,46.875,0.7458922602823324,0.41341006864572793,0.3520710059171598,0.3867069486404835,0.34816143583867937,0.364658521437676,2.6299198499902317
801,N,0,23.4375,0.8223830512317379,0.70313901581345,0.25734225065426,0.4280936454849498,0.16266784507085924,0.06840915822210321,2.4415189527280505
801,N,0,23.4375,0.7801675957951403,0.6298137934504447,0.40832049306625584,0.47232472324723257,0.22775662309317607,0.25690982899975634,2.3546040860257187
801,N,0,31.25,0.8381307730402164,0.6616208063031057,0.43417085427135677,0.5039370078740157,0.4265808913827958,0.8758969305240342,4.325194066162062
801,N,0,23.4375,0.7670188531191746,0.5888421000043568,0.3929026387625114,0.4487632508833922,0.23782172936121249,0.2699764784837528,2.6976768897144456
801,N,0,39.0625,0.808699800196556,0.6387618707094597,0.3806028424176168,0.45551601423487553,0.2671647072623309,0.2684847933028946,2.5924931863146465
801,N,0,31.25,0.8388054557886173,0.5714974661983077,0.3640856672158155,0.4475524475524474,0.2746740131016096,0.1944906883911055,2.576111195554042
801,N,0,31.25,0.46376506462823536,0.06621579525042183,0.43740178103719224,0.5039370078740157,0.44841112904432595,1.1002174008317065,4.3619958045689495
801,N,0,23.4375,0.8187369031517094,0.6787728607660523,0.3205398566005905,0.4491228070175439,0.23956062328629701,0.38528905668058416,3.447140107659106
801,N,0,31.25,0.787812756493693,0.6193724244039036,0.3679034421099687,0.5203252032520325,0.3054463413020952,0.4330709584079173,3.2935482494578543
801,V,1,31.25,-0.4646287517022462,0.09314047118470374,0.3532632694515588,0.13778256189451024,0.5034493309728996,-1.486488500069569,4.7048178636314075
801,N,0,23.4375,0.7111043676805127,0.4779732815426641,0.4438827098078867,0.4037854889589906,0.46545589002958043,1.099847973704785,5.508362492386431
801,N,0,23.4375,0.7995714655540813,0.6230518203026703,0.40220119714230546,0.5099601593625498,0.2981860000803379,0.3953555009181769,2.860387967782166
801,N,0,23.4375,0.7927872086068978,0.6591841321078336,0.3276900537196809,0.42666666666666664,0.20253523301323031,0.18355837403633257,2.5828403731305953
801,N,0,31.25,0.80897863215947,0.650207197967842,0.35837180025178345,0.45714285714285713,0.30763780090621284,0.48325803412644036,3.431001323762474
801,N,0,31.25,0.8111089827462771,0.5781300132088458,0.47438882421420253,0.5541125541125541,0.48877258248838956,1.0717095377361328,4.526212390269551
801,N,0,23.4375,0.7839464923619183,0.6327955055028576,0.3045633474267386,0.39143730886850153,0.1749138370501904,0.07209423326900054,2.525357867540393
801,N,0,31.25,0.800190756152529,0.659074095089605,0.30657557643040134,0.4522968197879859,0.21750384366294412,0.18284556426191584,2.7001328415761265
801,N,0,31.25,0.7850761478834444,0.6196995783372401,0.3285642987855598,0.429530201342282,0.24657703680991158,0.32276684226080765,2.8358456894740014
801,N,0,31.25,0.7544772512440535,0.5505099919652597,0.39476484358374125,0.46886446886446886,0.3584181516661935,0.6607887838198432,3.91004984125427
801,N,0,23.4375,0.7931232048651016,0.604351267121821,0.393385982230997,0.4037854889589906,0.4036652892561982,0.9763024735881408,5.354351552034464
801,N,0,23.4375,0.7946977584456526,0.6448165685676308,0.3792947558770343,0.4571428571428572,0.286912621959705,0.44668030992195484,3.5452147542081653
801,N,0,23.4375,0.7994496183821397,0.6737174780969848,0.31264998285910184,0.41693811074918574,0.19696380000934077,0.17366152359227063,2.770344125450266
801,N,0,31.25,0.7959417467596923,0.6507862366906237,0.36949466852109414,0.5614035087719299,0.304020885219383,0.5188669095973467,3.2632072997447437
801,N,0,23.4375,0.8161629125814702,0.6506218914958233,0.3712200208550573,0.45229681978798597,0.3574042414230281,0.8490800936775512,4.856509951452883
801,N,0,23.4375,0.7939911634217738,0.622004616966643,0.3926901827454314,0.5,0.31281047938380524,0.5325620534553005,3.142380452293776
801,N,0,31.25,0.7724999304798426,0.6182513036356938,0.35964912280701755,0.5446808510638297,0.26838278110988173,0.3852101784662158,2.9458778475492213
801,N,0,23.4375,0.7513162349362134,0.5857234555273784,0.35276643148904563,0.43835616438356173,0.20584515184513633,0.09105670031592111,2.847425116681475
801,N,0,23.4375,0.7136439202888215,0.3590484705116169,0.369667279036538,0.39751552795031064,0.3869716706247212,0.762911554730392,4.0249309112513405
801,N,0,23.4375,0.6637702761851881,0.27541824847809115,0.3962140992167102,0.4444444444444444,0.3494536119039978,0.48330363366143575,3.7760257784586178
801,N,0,39.0625,0.7008988361352381,0.278583280610026,0.42425838160435314,0.4444444444444445,0.4239157356190261,0.5466821203922951,3.022345836772135
801,N,0,23.4375,0.8134588165701809,0.6648745938946634,0.3411493369210072,0.5378151260504203,0.2383720845814415,0.27611585344131423,2.7175862891837768
801,N,0,23.4375,0.8254795477727741,0.6102209887855204,0.46309111880046133,0.41025641025641035,0.5067352002835874,1.4368417140697396,6.841467880134497
801,N,0,23.4375,0.7864153637039242,0.6237687983588601,0.36821537125488496,0.4923076923076922,0.30206464799502597,0.526060985603731,3.422563362926389
801,N,0,31.25,0.6324591515744058,0.004454977975901307,0.5658990690837825,0.4571428571428572,0.5332464205454537,0.6947970120677767,4.164349817190191
801,N,0,31.25,0.8173579365789008,0.5454920190331644,0.3415279878971255,0.4338983050847459,0.2948711354934567,0.4208419760471812,3.171951615632481
801,N,0,31.25,0.7552117604093835,0.42530891518102765,0.3528169014084507,0.43389830508474575,0.32113045637526216,0.3098479234341124,3.041274468850425
801,N,0,23.4375,0.8082914682914727,0.6630787716322978,0.3551149881046788,0.4723247232472325,0.22828788782491635,0.20483830991288593,2.479213570865346
801,N,0,23.4375,0.7497584682491016,0.5730190338594389,0.3936606996222697,0.37209302325581395,0.27577496035736887,0.5088363731144344,3.043048181693515
801,N,0,39.0625,0.7331460965136268,0.5057602274261008,0.4797054290118171,0.435374149659864,0.33324918206090226,0.6178957958109604,2.8424134573430346
801,N,0,31.25,0.7709803752092265,0.5872691373029582,0.4106827025114963,0.496124031007752,0.26869717268987775,0.3751964228853254,2.5492477174742056
801,N,0,23.4375,0.7651109935156258,0.5957203027736463,0.3991275899672846,0.380952380952381,0.2936255071400738,0.5076117042033543,3.26224041832005
801,N,0,23.4375,0.7540371288538185,0.42996048513736645,0.5316220238095237,0.3710144927536232,0.37028304602664647,0.5668107375031577,3.335907114840491
801,N,0,31.25,0.7714634853509199,0.5676203624542351,0.4174904942965779,0.4848484848484849,0.28475743057816644,0.3885165782956673,2.7228477924615166
801,N,0,31.25,0.7476777330467133,0.48028821641212327,0.4880713489409142,0.460431654676259,0.3622462758208767,0.6722997604145847,3.29064324969989
801,N,0,23.4375,0.8255148673396606,0.700389468060848,0.3602669945547163,0.4338983050847457,0.2720203217121259,0.42341621246187294,2.9805134411619565
801,N,0,31.25,0.7889490647243382,0.605955323447606,0.44166294143942775,0.5059288537549408,0.3746323008919162,0.649067026853856,3.4047249300736295
801,N,0,31.25,0.7805883651560568,0.521241413032252,0.476294386034517,0.42244224422442245,0.3678295525675665,0.5825690466626924,3.1995912551778036
801,N,0,31.25,0.8411725436416768,0.7078742738815247,0.3727409638554217,0.4705882352941177,0.318535446854031,0.4899775338008223,3.1368475576295896
801,N,0,31.25,0.7800278633338089,0.5548321448043707,0.44799485309886344,0.44755244755244766,0.42067463889246065,0.7027031629273651,3.8252511908126032
801,N,0,31.25,0.7317887762974772,0.37298113736326505,0.37822096717260856,0.4155844155844156,0.3533699424240251,0.41065449663281695,3.2620346548548653
801,N,0,31.25,0.8008323486246032,0.5812600977476405,0.4486707566462167,0.4368600682593857,0.38244933471144665,0.5849432456229888,3.481914082043633
801,N,0,31.25,0.8388238127815001,0.6951387269086938,0.3377517645033569,0.5663716814159292,0.21380325042646287,0.09769470845615913,2.4756901461503356
801,N,0,31.25,0.8336091513091268,0.6498923305587037,0.45450121654501224,0.5140562248995983,0.3642754111872915,0.5092074516632384,3.408123511061325
