record,cls,y,qrs_width_norm,template_corr,template_corr_abs,pos_neg_ratio,slope_norm,energy_conc,seg_skew,seg_kurt
100,N,0,11.148272017837234,0.9914989156596088,0.991388338895065,0.8454151652523664,0.7371170722140205,0.8827114441215319,4.0762288381845755,22.483380937894264
100,N,0,22.29654403567447,0.933118466784497,0.9267250700743993,0.8504647532932509,0.9851867553838838,0.9150700968958911,4.082434873071287,20.405909972354568
100,N,0,11.148272017837234,0.9821613394238314,0.9801220005708098,0.8399109747046654,0.7774065637277905,0.935396820716448,4.201602215567059,22.743316163563883
100,N,0,22.29654403567447,0.9134909291741193,0.9059019580554207,0.8628046285547654,0.89575714405945,0.9372242827578706,3.931719231363376,18.447190608731724
100,N,0,11.148272017837234,0.9911392656287428,0.9895565334454636,0.8126892645012532,0.765284205021674,0.9105270069801075,4.295779409858975,24.43437901243227
100,N,0,22.29654403567447,0.971603127593689,0.9680434142657602,0.8286128829594523,0.7718022363742998,0.9341463756297516,3.9799074493579494,20.354706291133557
100,N,0,22.29654403567447,0.8670384845406723,0.8694201228089483,0.8858238752501156,1.0280849389331213,0.8945662975083529,3.7082944012319077,16.55554011597522
100,N,0,22.29654403567447,0.9356811484576123,0.9308325976468148,0.8746688817570828,0.9270560627508195,0.9260406073265746,4.06687657241724,19.857766809136645
100,N,0,11.148272017837234,0.9812910154986646,0.9799064150029411,0.8539077638629766,0.7959868129963186,0.931019209079783,4.246487568988088,22.883263665184895
100,N,0,22.29654403567447,0.9350943833457092,0.9288165379210883,0.8788150101689963,0.8153077903589061,0.9264687569982956,3.8639940109474082,18.27182946886475
100,N,0,22.29654403567447,0.8541515152129783,0.8377087773190472,0.8106519590974048,1.0741681313034237,0.9312931120080339,3.527745772063537,15.906107647380349
100,N,0,22.29654403567447,0.9283945517367465,0.9200033463439429,0.8178030965272803,0.8972820912318625,0.9090109783048311,3.7884625365021156,18.13644632325401
100,N,0,22.29654403567447,0.8849085362983862,0.8790375088534127,0.8704894538650545,1.008444533821202,0.9107252970111027,3.8090855425598953,17.32536638420153
100,N,0,11.148272017837234,0.9967378630761489,0.9960808020284104,0.8303016764830266,0.7109805272959014,0.9289535365001225,4.430579593405073,25.415078100531844
100,N,0,11.148272017837234,0.9976723622930377,0.9974488009042886,0.8882576283100816,0.7027090477608582,0.9070079795070509,4.269325694945899,23.698565613317776
100,N,0,22.29654403567447,0.8909989450347223,0.9012369493367456,0.8739873472474874,1.042294429807475,0.8705226233695674,3.5734900313971862,16.203524620406423
100,N,0,22.29654403567447,0.9747581091913305,0.972608933882304,0.827923647758039,0.7919891544750625,0.889969015844279,3.8588259434554857,20.060418926072305
100,N,0,22.29654403567447,0.9652429161771239,0.9624724741663817,0.8440697058768825,0.9087247668092375,0.9282904207075595,4.361954460426351,23.52975730661146
100,N,0,22.29654403567447,0.9663853102524195,0.9627738034833451,0.8438186025083673,0.7843227220521853,0.9282560645501848,3.9613728594496345,20.047989708663675
100,N,0,22.29654403567447,0.9288689045048569,0.9215824170066599,0.8476093671665514,0.9134244747690938,0.9180815791252737,3.843671417297249,18.685000997663547
100,N,0,22.29654403567447,0.9248898748197886,0.9170286275549047,0.8597325156106711,0.9092433984637727,0.8863348325418746,3.718126469508694,17.836605202988103
100,N,0,22.29654403567447,0.9813340454269235,0.9811745673780611,0.8770965908811845,0.568875157334392,0.8934064487720695,3.619358829566946,17.70795524145617
100,N,0,11.148272017837234,0.9964536876448602,0.9960152812739491,0.8469823530840747,0.7345256110490841,0.9183165916015882,4.428771422813871,25.48329008078727
100,N,0,22.29654403567447,0.9471562222620945,0.9405947520994133,0.8203009719104649,0.8691199793608885,0.9314123140100271,3.9936251789365347,19.940059314795825
100,N,0,22.29654403567447,0.9495089753057478,0.9443069170688337,0.862129507025357,0.8051396851334299,0.8951271335777217,3.4691502335158964,15.81531372086326
100,N,0,11.148272017837234,0.9887001156662384,0.9880935565609757,0.8356922122700038,0.6241873007664276,0.9161555156966773,3.8522136355491288,19.77258010114207
100,N,0,11.148272017837234,0.9884767899438014,0.9871190853450961,0.83534667107805,0.7681375260209568,0.9452238028171495,4.340538000065074,23.763097059394326
100,N,0,22.29654403567447,0.962244138392058,0.9588306746019982,0.853373146606046,0.8556355861018267,0.924364314225372,4.21071868066388,22.510307634834422
100,N,0,22.29654403567447,0.9178807298687612,0.9122147492216381,0.8729482040931548,0.9972199984218203,0.9269601501573252,4.011749720860014,19.38176839483417
100,N,0,22.29654403567447,0.8861489541858675,0.8957073677833424,0.8482569169440994,0.9594090600589212,0.9190981526241551,3.7704307577028056,17.33443073188141
100,N,0,11.148272017837234,0.990142529897184,0.9903428787596404,0.8409423479940861,0.7614368483803599,0.8805134934420074,4.071242916063221,22.70247774637575
100,N,0,22.29654403567447,0.8681249454114547,0.8588086633836282,0.8893550149921875,1.0193100375183444,0.9478672541095235,3.741503044493233,16.728924302239488
100,N,0,22.29654403567447,0.8802851890583051,0.8880151537698527,0.890807787729399,0.951647196337161,0.94174510674554,3.9320922606073987,18.04295174547098
100,N,0,22.29654403567447,0.8584671243633827,0.8448222243300804,0.890154327320872,1.000954472925243,0.8934665399031634,3.6083783777875373,16.003049231359526
100,N,0,11.148272017837234,0.986235625615601,0.9850541620377623,0.8544400474482421,0.8033710944736371,0.8992969384483582,4.166081329882261,22.58992084967029
100,N,0,11.148272017837234,0.9853921506373113,0.984261580543292,0.8734412997172409,0.7481782884092547,0.9334721381558191,4.228443456362427,22.601035911663867
100,N,0,22.29654403567447,0.9109541399691804,0.9127880021031438,0.8965028141850319,0.8753757733018908,0.9570516607693439,3.6220305251989067,15.83708709194097
100,N,0,11.148272017837234,0.9930090420507162,0.9922597275872596,0.8463180868891417,0.7555721921546877,0.918291860170986,4.395909239042023,24.984700965383027
100,N,0,22.29654403567447,0.890352597720449,0.9106487871376389,0.8498004278845259,1.060950651986607,0.9230704988382461,3.9015966211903375,18.254713160848315
100,N,0,22.29654403567447,0.8288928972992369,0.8147356405239286,0.8536070607396954,1.035228700406391,0.9409156727879278,3.90717859672934,17.74014789685739
100,N,0,22.29654403567447,0.7648917952152596,0.8171790540755742,0.8683509237102313,0.9918876775463884,0.9259808507331931,3.8440120608512864,17.82237132583549
100,N,0,22.29654403567447,0.9013505154315393,0.8989759531862166,0.9052180590874235,0.9696864501037403,0.9237807482233,3.9699067663712633,18.5472851800124
100,N,0,22.29654403567447,0.9509720455870067,0.971455964306851,0.8808099466004962,0.5706810189979798,0.9221892212593722,3.479565410803478,16.03911512463526
100,N,0,22.29654403567447,0.9605176026624441,0.9702271101036651,0.9040080185855225,0.6452894620869554,0.9167062352115884,3.6692155394337305,17.346964923640694
100,N,0,22.29654403567447,0.8265625483898482,0.8465326218631712,0.8386733291627987,1.0322140892559577,0.9657581074265988,3.9855818314879476,18.133141224131837
100,N,0,11.148272017837234,0.9844296860653398,0.9829571688235205,0.8221819209606676,0.7563547856694556,0.9534430348156432,4.684112531260798,27.391127660804994
100,N,0,22.29654403567447,0.924024130665073,0.9205493099633942,0.9033425480026195,0.9540086485517661,0.938068816125367,4.144661995593305,20.25920218453756
100,N,0,22.29654403567447,0.9648504273123415,0.9619836275621453,0.8556691948463102,0.753145055940666,0.9346444620689703,3.917852142560636,19.717935550125446
100,N,0,22.29654403567447,0.9423501859156718,0.9367923134360171,0.8789657121853269,0.9592880479366761,0.8785652541187651,3.9043016849220606,19.51419286572929
100,N,0,11.148272017837234,0.9725240263740266,0.9707411107608683,0.8576965562200486,0.8801142127787716,0.9428262589239236,4.493208007192824,24.57182359953809
100,N,0,22.29654403567447,0.8347359630016673,0.8378779774773297,0.900393558276667,0.8765370959923544,0.9506025595744914,3.766085258326609,16.914033106883767
100,N,0,22.29654403567447,0.9483961724702147,0.9430297448959537,0.9058524179436692,0.8125507989590537,0.9177830459756985,3.587623726891252,16.319556920806566
100,N,0,22.29654403567447,0.8995361995189848,0.886326193730757,0.7962510558440302,0.9634015973001137,0.9454738695038231,3.730240896844155,17.128407561756507
100,N,0,11.148272017837234,0.9885829038784643,0.9864524989856898,0.8044509372082457,0.8252103270375584,0.9108729615355866,4.434519389467506,25.253095771605608
100,N,0,22.29654403567447,0.8603721404941052,0.8644342855540744,0.8356758164382622,1.020307272275364,0.9103246687639316,3.7039299523351743,16.539535283915185
100,N,0,22.29654403567447,0.9612170950184538,0.9585131926920746,0.849513022477498,0.7501641744751797,0.948896638090189,4.00513844201144,20.010252673683027
100,N,0,22.29654403567447,0.9341725629533482,0.9267825152942277,0.8246524582813834,0.8457618430011906,0.9522647968375705,3.7433731903875365,17.42202654523978
100,N,0,22.29654403567447,0.9626104703035092,0.9590380627661231,0.8516302429271027,0.8455416059491724,0.9010720781718033,3.9844698646021204,20.715355826003183
100,N,0,22.29654403567447,0.9113659655725138,0.9008459783284148,0.8190573893315695,0.9437786959695681,0.9040957348407489,3.7436185617293876,17.81913901845536
100,N,0,22.29654403567447,0.80446719319725,0.8431090599587887,0.8396143666705417,1.0141223849858134,0.9344216886082016,3.8417534886980875,17.391380816095204
100,N,0,22.29654403567447,0.9463985945477295,0.9413917506454254,0.8646104555886561,0.8673798827356289,0.9236501399533144,3.973582221854585,19.77146392897912
100,N,0,22.29654403567447,0.8442573420466134,0.8817832271918227,0.8544095903223347,1.104294817864325,0.9417736779845849,3.885539037678229,17.640746766697237
100,N,0,22.29654403567447,0.9597841564855084,0.9562503603992392,0.845212229641616,0.8128944305330489,0.8775453587326231,3.6394512767475704,18.009558749606555
100,N,0,11.148272017837234,0.987317388909799,0.9866248685930551,0.8443354534540027,0.8162156631344157,0.8748705585446452,4.225198645120362,23.834585627273164
100,N,0,22.29654403567447,0.9169508032209608,0.9135700620058552,0.8210633996686841,0.9399704399327888,0.9554936504928028,4.0794002385245065,19.829322309967267
100,N,0,11.148272017837234,0.9940508790167409,0.9926569824540256,0.8224238957531593,0.7546979298946873,0.937862758221881,4.406083534012469,25.028799210788147
100,N,0,22.29654403567447,0.9607311002571157,0.9567225854787385,0.8657710587156974,0.8381988505824716,0.8805330238587225,3.8041108241194035,19.401436045324818
100,N,0,22.29654403567447,0.868207005994777,0.8562971182958697,0.8419808479783083,1.0272009901974655,0.9479668327478357,3.8345878092104426,17.409579513905854
100,N,0,11.148272017837234,0.9926118648160197,0.991974692913526,0.844350846308205,0.7718733112802674,0.9335864000279841,4.4192779339378765,24.864875314526913
100,N,0,11.148272017837234,0.9896096342080016,0.9926027842663481,0.8400371959536804,0.6286330249226957,0.9154780668514961,3.919823874764385,20.912740744509577
100,N,0,11.148272017837234,0.9892515648250554,0.9886616605705526,0.8601285561006903,0.6375330607920959,0.8980802174192696,3.751865642515131,19.085161285442457
100,N,0,22.29654403567447,0.9726287922888431,0.9693492339158601,0.8273152361517582,0.8284131289518175,0.9157029155006297,4.112333234527284,21.922251649882853
100,N,0,11.148272017837234,0.9876633719243202,0.9861142839522961,0.8356617417038655,0.7271478695456257,0.9306189319239406,4.185618510827343,22.578678548839754
100,N,0,22.29654403567447,0.974352597488658,0.9844263493646874,0.8844236850373766,0.5975717608127438,0.9405876517655666,3.8678953098693176,19.54358713019159
100,N,0,22.29654403567447,0.8509525406818407,0.8380990624985254,0.887478233603561,1.0423646178238852,0.9266337671165819,3.7696783234406936,16.997091507916174
100,N,0,22.29654403567447,0.907417168929363,0.901486733629047,0.8569918402824019,1.0031604130029794,0.9209437490924697,3.877645040797209,18.39655922161869
100,N,0,22.29654403567447,0.9424393968053837,0.9364551565200074,0.8606564853290746,0.8970123594895099,0.8941135063675378,3.85253838733074,19.21917741389721
100,N,0,22.29654403567447,0.9065218361268328,0.897049391524547,0.8177293319393122,0.9092010919811195,0.9586623285653313,3.971477104922346,18.572114686074766
100,N,0,22.29654403567447,0.8653677733793527,0.8794935925675372,0.8830997415119349,1.0401298113334438,0.9301410255495143,3.8695999861317425,17.572791138141085
100,N,0,22.29654403567447,0.9681840749592506,0.9643007817271392,0.8848743629261473,0.7077516160062851,0.9001954075478179,3.62257113462252,17.23882222100556
100,N,0,22.29654403567447,0.86315916223666,0.8510003352331257,0.8501653615003674,1.023699763031152,0.9367127449623608,3.8080314261738537,17.115276547452336
100,N,0,22.29654403567447,0.8971492518938256,0.8868554350620088,0.8790610444580005,0.8850099668888917,0.8861348328389986,3.6286758034943905,16.2718290796201
100,N,0,22.29654403567447,0.9367579026761184,0.9296311796672081,0.9027180133309268,0.8785467108502266,0.8934316132650745,3.812496760083819,18.628909152943425
100,N,0,22.29654403567447,0.9062490088866422,0.9087579335094426,0.8632751608851355,0.9019288009554072,0.9446074235471527,3.924730000434874,18.225546539353065
100,N,0,11.148272017837234,0.9743959794932399,0.9725958455233946,0.8016806979321366,0.822869435175476,0.8805682596687957,4.035082834936258,22.050535988224958
100,N,0,22.29654403567447,0.9199859615573062,0.9138317592546156,0.867445764286211,0.9643548364435529,0.9337208869067758,4.060800694827043,19.562317360917266
100,N,0,22.29654403567447,0.8605380349505617,0.86997917109758,0.8390525824543665,1.037460745115658,0.9150520148957976,3.8105726963263433,17.200743421322755
100,N,0,11.148272017837234,0.9861240293071265,0.9832195033616893,0.7875477307757516,0.8075634356943522,0.9451423940947844,4.476350202988606,25.775563914791004
100,N,0,22.29654403567447,0.9276627403928398,0.9209166613547004,0.8446865281775155,0.8804523219550777,0.9365284283670801,3.828976965262035,18.080209856641826
100,N,0,22.29654403567447,0.9256045188865585,0.9157761530896229,0.8038119101790601,0.9821833286795258,0.9026891811194545,3.809238246108801,19.51391200621729
100,N,0,22.29654403567447,0.9470079442181758,0.9418221064624247,0.8463902009754787,0.9127458891606484,0.8825691429272289,3.770150326839469,18.49447350209725
100,N,0,22.29654403567447,0.8759967248848426,0.8833367374593315,0.8305386491334966,1.042907329345573,0.909077919914342,3.703552309516942,16.61983807020224
100,N,0,22.29654403567447,0.9494362994340195,0.9444950612679215,0.8280918441444733,0.875472616132227,0.9378649315327207,4.014336558589037,19.97121249215422
100,N,0,11.148272017837234,0.9928131269200322,0.9924915439166133,0.8460648311524063,0.738526952721223,0.8802814227764266,3.9891103032816226,22.182698764492518
100,N,0,22.29654403567447,0.950338941865332,0.9532746538504999,0.8206800549222659,0.8319596107590433,0.911208946642434,3.8051109775926775,18.8028726637223
100,N,0,22.29654403567447,0.889006195418878,0.8749186140619019,0.7872011699068063,1.0145593845351182,0.9220075070253287,3.5760602769572243,16.531098687694712
100,N,0,22.29654403567447,0.9324099537013592,0.9261522758439549,0.8318576994085434,0.9008656855514754,0.8615890895509976,3.4899433503144976,16.7351022370623
100,S,0,22.29654403567447,0.83826364868178,0.8770879635829689,0.8834154575496388,0.9364281600452381,0.920369346869005,3.5952517294508057,15.836867403542291
100,N,0,11.148272017837234,0.9870268914186164,0.9858964941685783,0.8562994901663371,0.7340905814421774,0.8990267716506694,4.012698795351441,21.099389184237108
100,N,0,11.148272017837234,0.9841771768338031,0.9839874329474947,0.8602623399897058,0.7754256067730502,0.8866885965096564,4.1931970669809475,23.329087046354864
100,N,0,33.4448160535117,0.8656393819331906,0.8978223484816333,0.8468891374219146,0.7375933111123859,0.9583836545824856,3.1075309894383336,11.841351875710096
100,N,0,11.148272017837234,0.9876377071241331,0.9869535700426807,0.8680961831003655,0.7957811713518198,0.8901403584971617,4.368550468601894,24.61482330800967
100,N,0,22.29654403567447,0.9160241636659864,0.9069349600183746,0.8354521652904795,0.908897796858336,0.9066743239502326,3.7329423167099813,17.424542191516956
100,N,0,11.148272017837234,0.9808756587775246,0.9814731348306756,0.829597886011203,0.8032938552231429,0.8785214561132468,4.322572537447204,25.04734434711924
100,N,0,22.29654403567447,0.9142534177215149,0.9171940201818867,0.8877499636958326,0.8659633045950544,0.8899270625054438,3.645762625277794,16.581828715490225
100,N,0,11.148272017837234,0.9906960182507824,0.9907102884165595,0.8499566851312547,0.7695249957552159,0.8592364261900493,4.0589282749807065,22.58822901022878
100,N,0,11.148272017837234,0.9716831173356103,0.9699496041744374,0.8520955922398088,0.8808515199782307,0.8413660759609566,4.0548724649900185,22.626790259480813
100,N,0,22.29654403567447,0.8545044613910735,0.8724987013015716,0.8705751478826642,1.0662266688906001,0.8895235102982415,3.624926507134781,16.04109583398759
100,N,0,22.29654403567447,0.969037214486187,0.97604254698919,0.8570512791851896,0.613247818313204,0.902763500256337,3.5559277537309524,16.90226855117469
100,N,0,22.29654403567447,0.892953122451585,0.8815818320293373,0.8696734047232477,1.0241270746782993,0.8657571200837919,3.3316364478493865,14.523757270194666
100,N,0,22.29654403567447,0.9527844173279553,0.9475179148048306,0.808691331979882,0.9019871515155244,0.8794994557859138,3.6511969361953995,18.90575880718309
100,N,0,11.148272017837234,0.963525395280797,0.9607870977341747,0.8569059593992658,0.8297020514554326,0.8497076958871477,3.779223596623799,19.857246928812906
100,N,0,22.29654403567447,0.95379615552251,0.9496392627619753,0.8698567213204238,0.8346369620479094,0.8331142730114003,3.53816845334015,17.577849682229978
100,N,0,11.148272017837234,0.9767847074912842,0.9771407930929734,0.8754575297213746,0.8510737760848749,0.8726363707764422,4.3157625744630765,24.587651004218063
100,N,0,22.29654403567447,0.9375890186503683,0.9527960981238888,0.8854569378697318,0.6410834975053901,0.9202949887550462,3.508785009881448,15.805413334944989
100,N,0,22.29654403567447,0.82572837746972,0.8067298963199618,0.873233364598806,1.0749173042026712,0.837361358400339,3.2628328888107703,14.163403863731988
100,N,0,22.29654403567447,0.8688719305886892,0.8956212180797883,0.891797320749761,0.7915739707102336,0.9398258991311707,3.622132274735744,15.977800023102382
100,N,0,11.148272017837234,0.9913668157352954,0.9909579933626124,0.8611557290840203,0.742613439638852,0.8606277553510403,4.020769264062973,22.539061407046724
100,N,0,22.29654403567447,0.9148923721239385,0.906733998512853,0.8584223101112927,0.9967238973381551,0.8931281486931643,3.7737151035690086,17.69480215315654
100,N,0,22.29654403567447,0.9237076395492222,0.9151570999478922,0.8198089742240992,0.918278314047343,0.8871933406908483,3.3885323096660223,15.349254817744562
100,N,0,22.29654403567447,0.9071894278416663,0.8972610307443938,0.8372039959117009,0.9591754001498365,0.9062421209752217,3.7591382107239335,17.994316768060308
100,N,0,22.29654403567447,0.9013309350479275,0.8915855226316923,0.8765622902549091,0.948925259424553,0.9072699250228181,3.727638934786117,16.99015900993939
100,N,0,11.148272017837234,0.9887297751713712,0.9888728344581813,0.8543124357127129,0.6773418946162024,0.8941644326885587,3.998940218623853,21.37561662532514
100,N,0,22.29654403567447,0.8938228669859081,0.8825400567826697,0.8346318558930464,1.0223808301046902,0.9119821014999548,3.6358801681644017,16.275511370835453
100,N,0,11.148272017837234,0.9812441807869987,0.9855265509819446,0.8160514225419053,0.749035600611284,0.8999468889720047,4.104274634952177,22.91639524588211
100,N,0,11.148272017837234,0.9638629532679691,0.9622868528862087,0.884400047687885,0.9166249494967449,0.8801137152872766,4.196777928112429,22.689081861132287
100,N,0,11.148272017837234,0.9869205430829329,0.9869014485949874,0.8700347951661199,0.7980821452420994,0.8780900525645157,4.208249010718531,23.346306016141945
100,N,0,22.29654403567447,0.9093794507328647,0.9010881107830548,0.8588841133641919,0.9269155996887162,0.8758135242911843,3.5488697996924743,16.610201775025615
100,N,0,22.29654403567447,0.916775876777111,0.9442509772694543,0.8822498783614494,0.7717784230834841,0.9100197402325343,3.593899642419667,16.641678936826622
100,N,0,11.148272017837234,0.9674488208955292,0.9673851968362002,0.8263120796563708,0.8475031789700807,0.8557303041977621,3.9144878875971854,21.49543436337666
100,N,0,22.29654403567447,0.9424293706342335,0.9365450406202437,0.837605664845393,0.915964153652564,0.9082542659115643,3.8728844023792894,19.06699369281373
100,N,0,22.29654403567447,0.9489319286821846,0.9497496779399077,0.897304771442081,0.6567690252140111,0.9142425187503703,3.3935174602525113,14.78211771610965
100,N,0,22.29654403567447,0.9593647508623858,0.9596787491549651,0.8835221979119618,0.7486917854500063,0.9331350236511289,3.5013039193267965,15.966582273984013
100,N,0,22.29654403567447,0.9111017036033362,0.9183036461846243,0.8754075278694492,0.8172947556032343,0.927018212733959,3.666151436660314,16.681620701722363
100,N,0,22.29654403567447,0.9363871823945566,0.9303978485186439,0.8308775686588913,0.9630478881620107,0.8689162494240127,3.812170418541127,18.865494011148176
100,N,0,11.148272017837234,0.9949452333961281,0.9943371150496773,0.8300867354465554,0.6773516274238343,0.9120193466331622,4.129457836279144,22.423478216643637
100,N,0,22.29654403567447,0.9744244882447464,0.9728165845745134,0.8732152229378656,0.8365387757167555,0.9333481713510702,4.3289644372306295,23.094052498473005
100,N,0,22.29654403567447,0.9615583270963817,0.9586404390366596,0.8555323405380965,0.9317094648784344,0.9306554043925336,4.459921352282135,24.27116922393398
100,N,0,22.29654403567447,0.9615341204574808,0.9582681571284236,0.8609032199478314,0.7872829840670581,0.9435982962826089,4.067347749745874,20.507070595358773
100,N,0,22.29654403567447,0.93697990561876,0.9316311796501301,0.8628084593284149,0.9784858478760939,0.9155745722033881,4.090243935214013,20.56020652238641
100,N,0,11.148272017837234,0.9959206120307514,0.9943500152080268,0.8941102474098378,0.6689456938460466,0.8795560175754807,4.055184107763565,22.16414487960246
100,N,0,22.29654403567447,0.874266662040108,0.8781997248795784,0.8715106281104833,0.8786518506401609,0.9171495934212409,3.4910018501952655,15.153400425143385
100,N,0,22.29654403567447,0.8620939308519194,0.8491440172349547,0.8883327156171553,1.016876908724323,0.9008740110018897,3.581219046569274,15.829042888324953
100,N,0,11.148272017837234,0.9878112351482118,0.9875438339639032,0.8512815027624078,0.8177398434960041,0.9036849977304077,4.4050929847939075,25.016307097458093
100,N,0,22.29654403567447,0.8289197963992733,0.8794887204187294,0.8420027008125098,1.1485693273016933,0.8666660109912606,3.339792631798027,14.515506130041004
100,N,0,22.29654403567447,0.9181879963555797,0.9091124702411544,0.8219724978976993,0.9016465727368579,0.9197913270680217,3.758206315624568,17.66133119949012
100,N,0,11.148272017837234,0.9796323092275104,0.9776875153297404,0.847337811691065,0.7778766186081366,0.912059023969808,4.045685957804136,21.66372772088217
100,N,0,22.29654403567447,0.9002756989370279,0.8887855681783687,0.8176299540636589,0.9621653649840813,0.873041524749682,3.497812147313906,16.018050054569777
100,N,0,22.29654403567447,0.9338770825605694,0.9259793878351811,0.8022615238825873,0.9826394288656191,0.8975443633687132,3.806661053736455,18.99930711279628
100,N,0,22.29654403567447,0.8524718433734203,0.904722629162723,0.8242420050531477,1.1414434804299833,0.9116052598450012,3.644534907085472,16.446710534495878
100,N,0,22.29654403567447,0.9510569213192519,0.9467544213668925,0.8195525831506686,0.8797610099835038,0.8765735878670458,3.678922249433668,18.65654034366843
100,N,0,11.148272017837234,0.9552940542361815,0.9636601245985447,0.7955676276129409,0.7774416341176458,0.7855910926199213,3.472808052210699,18.81781758261544
100,N,0,22.29654403567447,0.9477791546567009,0.951830508471313,0.8497131736736587,0.8760347411836806,0.960959171435335,4.362380446332415,22.75768525635533
100,N,0,22.29654403567447,0.9783770590250042,0.9796397575800546,0.8774966719816626,0.6708191725339827,0.959207601629419,4.169215191793894,21.47894072530013
100,N,0,22.29654403567447,0.9161653546407197,0.9074590680602218,0.8747405047685188,0.9259225864369788,0.8895060911826449,3.711066223263764,17.612522017602963
100,N,0,22.29654403567447,0.9376381015586073,0.9385872031435339,0.8748177690966236,0.8554039485027838,0.9238780356298637,3.560748447133589,16.03755203902066
100,N,0,22.29654403567447,0.9448103315927419,0.9390072401768815,0.8729553125796651,0.8913779047801458,0.8830971001018267,3.868604276044508,19.631445771117416
100,N,0,22.29654403567447,0.968022581890835,0.9652387204843195,0.8335283190722359,0.753239033560329,0.8952612797186209,3.7263826785053014,18.45688729711711
100,N,0,22.29654403567447,0.9660997389664158,0.9698488667121642,0.8461408766834592,0.6668938456084195,0.9384790254094832,3.6013083884200148,16.79458686768796
100,N,0,22.29654403567447,0.9636992181821218,0.9603915007692572,0.8628631603689314,0.9081988002683266,0.8915677421536954,4.118817482098147,21.62890490525942
100,N,0,22.29654403567447,0.9450038348236426,0.9405105188460562,0.8630150267376336,0.9662038995146774,0.8720915520747885,3.910053268835205,19.96967313237831
100,N,0,11.148272017837234,0.9683424589265606,0.9658263621965996,0.8168416313275814,0.8606844805096823,0.880423834213453,4.033276362077401,22.052504857380406
100,N,0,11.148272017837234,0.9827393398722238,0.9826628489892626,0.8527701365757394,0.7666906554852235,0.8444856502928976,3.8456967404387634,20.87854686245175
100,N,0,22.29654403567447,0.8859553126485109,0.8739093475878015,0.8420764095534041,1.1035682857190476,0.8971495252976652,3.45552109092886,15.284851678977738
100,N,0,11.148272017837234,0.9813354297640615,0.9803792777638286,0.8417510298348096,0.7931341502757114,0.8747164919660557,3.9307247705287645,21.416055349120526
100,N,0,22.29654403567447,0.7763541997159081,0.7630292154869376,0.923054025966598,1.0174558597085168,0.8590593196703507,3.5874703539753607,16.32012481097549
100,N,0,22.29654403567447,0.7716663834088322,0.8469164818965937,0.8138006258795025,1.096173041055858,0.8994265681294931,3.4780401200531568,15.576153175690349
100,N,0,11.148272017837234,0.9929086314581542,0.9923494875866357,0.8758017822838824,0.6755848161790127,0.8544878046641504,3.860231368987441,20.85697075130059
100,N,0,11.148272017837234,0.9806996807980662,0.9825887134081781,0.8291913114011397,0.7533441273895157,0.8360282351776473,4.012873398989476,22.626841717657612
100,N,0,22.29654403567447,0.8069550123990638,0.8131177807306573,0.8851404661818407,0.832645780318122,0.9421215516817034,3.784124145801168,17.367388140225547
100,N,0,22.29654403567447,0.9679786342521297,0.9651887512275047,0.8501164959320299,0.8125784857150034,0.8743927930778624,3.6573818157348623,18.766804086280676
100,N,0,22.29654403567447,0.904452658085541,0.9225455393779148,0.880760582025678,1.0515689823772354,0.8569665430227177,3.630736752800748,17.177894519793725
100,N,0,11.148272017837234,0.9907670358175747,0.9900862067866816,0.8535979850995733,0.7495743993125898,0.8960767900284736,4.050680342615308,21.73909657189542
100,N,0,22.29654403567447,0.9127820262783808,0.9037224436237122,0.8165909152065949,0.9557575309266205,0.91218910921163,3.8304704818654067,18.407079786681262
100,N,0,11.148272017837234,0.9948638185579219,0.9944418765499783,0.8650885302118642,0.7329516950620929,0.9031573118359529,4.338911385909725,24.859300659286344
100,N,0,22.29654403567447,0.8791525436131602,0.8655418864031338,0.8244527309096954,1.0441782703065297,0.8945652118237974,3.4874425766974193,15.464808896252373
100,N,0,22.29654403567447,0.9080436799022685,0.9112041251678068,0.884173876560368,1.025457212909306,0.8087076327290771,3.4032169387704942,15.923747495209215
100,N,0,22.29654403567447,0.9603350362493216,0.9562233251664926,0.8728458960445189,0.780632036284572,0.8759509766531793,3.636877596951137,17.69945777834416
100,N,0,22.29654403567447,0.8864071509642315,0.9199890612699274,0.8684722044811034,1.0829701380653054,0.9166483672068927,3.8823386216087687,18.28780081100313
100,N,0,22.29654403567447,0.8110334884632772,0.8098558794617424,0.8911408237622744,1.099997474566685,0.8609188947880126,3.4558394821216414,15.13519852412023
100,N,0,11.148272017837234,0.9923527488293058,0.9933053256016224,0.8401477523257086,0.6620787831854957,0.8999167203145118,3.825769885658994,20.281538624218598
100,N,0,22.29654403567447,0.8448477297729272,0.8739163290131341,0.894663114050832,1.0913645604560467,0.8707352590153218,3.542424258957297,15.569159757011118
100,N,0,22.29654403567447,0.948142545876716,0.9429304072711934,0.8479435981954213,0.8077820351640312,0.8882105915465197,3.6258780622558824,17.31574210393418
100,N,0,22.29654403567447,0.9636713044421525,0.9778300831844536,0.8310802680958896,0.6210024070724385,0.9535632000433127,3.853588722091874,19.335803985329147
100,N,0,22.29654403567447,0.9241624012818469,0.9171119220092595,0.8284493737909315,0.9974208512043327,0.924451176267552,4.032526460351539,19.7958324480164
100,N,0,11.148272017837234,0.9895540787666739,0.9909413498490734,0.8704089308890527,0.6359746128103232,0.9058679723800128,3.8531208271912054,20.178273158646334
100,N,0,22.29654403567447,0.8710357452511904,0.8650552552057756,0.9127817775800092,0.9618278049436717,0.9174028774557617,3.6069114749471063,15.833867590349266
100,N,0,22.29654403567447,0.9576306509512644,0.9655098831706049,0.8526907740505586,0.7863351930278022,0.905433931313554,3.841078242406492,18.9795290370845
100,N,0,22.29654403567447,0.9421379215604898,0.9371413325819702,0.8332881400905221,0.9452073080343495,0.9107896223576106,4.13288439454676,21.00530541480017
100,N,0,22.29654403567447,0.9612148465300104,0.9586353305091659,0.8822692157459553,0.9017977870612031,0.9156857800964998,4.218087249338909,22.143878093172713
100,N,0,22.29654403567447,0.9642767693273528,0.9618795143661047,0.8345759912301438,0.7110243476799536,0.9149682852396325,3.6859893331219,17.69284930572578
100,N,0,22.29654403567447,0.8990908867372887,0.8982897912991199,0.8886931848931185,1.0178516509929436,0.8551487536477347,3.562416396326112,16.209194135969184
100,N,0,11.148272017837234,0.9854970889336925,0.9870149606851252,0.8338536408817258,0.7890803570413433,0.8578381952746963,4.013924148197915,22.09006610391019
100,N,0,11.148272017837234,0.9941275200286671,0.9951825172423606,0.8448834849102557,0.6770406184269513,0.8746290047963343,4.023498668953789,22.067695137090944
100,N,0,22.29654403567447,0.9319971282025863,0.9286332247296752,0.9143825259571282,0.9143707967141855,0.8953201583174186,3.8955351825123583,18.688216549160426
100,N,0,22.29654403567447,0.9581373819332265,0.9555680565836983,0.879136815474539,0.9215423110873748,0.887109145462112,4.133584684352031,21.802236548997545
100,N,0,22.29654403567447,0.9754727444151727,0.9729713972841931,0.8639505698285641,0.7558297905597355,0.90650701807396,3.8933830961195994,19.849245509903508
100,N,0,22.29654403567447,0.9585312830822069,0.95669043477817,0.8557205758755202,0.9221863385294082,0.8983409076090316,4.187477005337684,22.196425850687056
100,N,0,22.29654403567447,0.9209374937619754,0.9130060034872335,0.8945809252464398,0.8645053501266204,0.8961733961520856,3.7122550746243297,17.18404986992129
100,N,0,11.148272017837234,0.9771936843005526,0.9876296021187119,0.8536198636106054,0.557717477492649,0.9007076248720733,3.6319140766185614,18.05407656200598
100,N,0,22.29654403567447,0.8097342658987233,0.8327251351547396,0.8597590693342454,0.9702993879630195,0.8849090750959755,3.6005016703558463,15.972667528087882
100,N,0,11.148272017837234,0.9902923023356439,0.9902596302880323,0.8725147246263764,0.7713501145755544,0.9280895171797575,4.4209206228211775,24.612412121117977
100,N,0,22.29654403567447,0.8168215911760329,0.8704480825510303,0.8808348472089134,1.1474351994196805,0.9161010395344041,3.7536170066647214,16.83010980496924
100,N,0,22.29654403567447,0.8589997275306207,0.8472611557284643,0.881496054387368,1.0532466998523797,0.9103048826047568,3.7016415064641626,16.485613956490702
100,N,0,11.148272017837234,0.9843408062022132,0.9838208619712877,0.8558526082706781,0.7911963506057993,0.8909297665733484,4.180297311489405,23.344001339334092
100,N,0,11.148272017837234,0.9784056099674779,0.9786362131171912,0.8645843721360702,0.7410714422251596,0.8072808941751158,3.6669664788671037,19.706685455620004
100,N,0,22.29654403567447,0.9208200544620859,0.912504494892078,0.8578557935706052,0.894274926387322,0.8681820330306879,3.476935745917911,16.018588249087443
100,N,0,22.29654403567447,0.895828805692846,0.8852679337239124,0.8759626752672326,0.9513862795869678,0.8933363775067917,3.692181918491417,16.945412157278025
100,N,0,22.29654403567447,0.8905747923734703,0.8793952557492328,0.8437315470531781,1.0380199726511294,0.9092400121462366,3.5843380330047836,15.979016554848254
100,N,0,22.29654403567447,0.8145229605262705,0.8284142058006932,0.8839687562484173,0.9207730385110537,0.9118356742426457,3.612461291104216,16.021896122856575
100,N,0,22.29654403567447,0.9033311755089837,0.9167283266263312,0.8396662875094422,1.0428242294927488,0.9343904137661818,4.020541845477674,19.321952862190244
100,N,0,22.29654403567447,0.8412378807916404,0.8463316847544021,0.8988826117920642,0.8620291726938416,0.9368987945400176,3.7021135543269597,16.556453647838527
100,N,0,22.29654403567447,0.8951579259289315,0.9025586171391086,0.8985037129848099,1.030764080740052,0.8956585505900551,3.8126134564834384,17.698136897907883
100,N,0,22.29654403567447,0.9444070604740795,0.9388768004593467,0.8533557249511653,0.8811749440209979,0.8971000397023137,3.7994750683550222,18.81680607034642
100,N,0,22.29654403567447,0.9590475266970288,0.9558428790327114,0.8177633916661321,0.8757639209147334,0.8647249051601493,3.742036524832805,19.47678258378499
100,N,0,22.29654403567447,0.9244743547127955,0.9172445244150715,0.8824422398809778,0.9359085504202939,0.8638529372973475,3.663891043965101,17.19263800901076
100,N,0,22.29654403567447,0.9330837910032702,0.9261377570006677,0.8607731944596518,0.8679698142762491,0.8839376747499189,3.6956825741233947,17.56287086047157
100,N,0,22.29654403567447,0.9585155299910822,0.9545702609799017,0.8856431496397563,0.702600801753741,0.9428154771373317,3.8883566147682043,18.705092689825182
100,N,0,22.29654403567447,0.9706516879959779,0.9677827886708912,0.8552600216851387,0.7181646712684171,0.9396414148577552,4.013535441018139,20.174011186378408
100,N,0,11.148272017837234,0.9830093679304466,0.9806630743707517,0.9079021422728657,0.7657734714533353,0.91674150357191,4.2509534484157365,22.739963652107345
100,N,0,22.29654403567447,0.8448742862544699,0.8633074739626665,0.8824286063562822,1.044807592760228,0.9140713680948404,3.8147772348684956,17.11222739871327
100,N,0,22.29654403567447,0.9152190778702869,0.9138850178223671,0.8803471664315682,0.9305039117947885,0.9275861319825597,4.022547230790844,19.09994807517606
100,N,0,11.148272017837234,0.9924764369685227,0.9928454514755334,0.8401848253152101,0.7236428604069144,0.921693959549586,4.395710232141872,24.579861400638393
100,N,0,22.29654403567447,0.93488834030622,0.9397275654953117,0.9285930214348075,0.7812638466214084,0.9439791421158702,3.5193760092061037,15.208507853368522
100,N,0,22.29654403567447,0.8532639392589918,0.8518907829910776,0.9098567287447162,0.9085172105496071,0.9311353762126131,3.7327150121816217,16.626372463000788
100,N,0,22.29654403567447,0.893417022297355,0.8837999308086119,0.8921280432785403,0.935865236690092,0.9170664641508693,3.8192268416744963,17.348105710203157
100,N,0,22.29654403567447,0.9851356268232095,0.9845617220549776,0.8662558733061416,0.6330237165534922,0.9037991891461208,3.764145969220052,18.92146764688506
100,N,0,11.148272017837234,0.9892092657007576,0.9908594016442475,0.8330235876066246,0.7109910593826867,0.8632370070350845,4.108452035382457,23.104397486588194
100,N,0,22.29654403567447,0.9309949145751665,0.9294187372127761,0.8766991478065995,0.8890523607083322,0.9170090034852807,3.9067465661782848,18.59189966349804
100,N,0,11.148272017837234,0.9825012680901694,0.9821939864529081,0.8460186690867445,0.6980735590079152,0.8939006306211968,3.87433736254851,20.159411683237874
100,N,0,22.29654403567447,0.959641790554979,0.9548162252347494,0.8158121848606146,0.9081979420060872,0.9473262591227705,4.451554907431564,23.771416674045188
100,N,0,22.29654403567447,0.9567946738101032,0.9546376829718812,0.8851684643951883,0.8716159686773557,0.9411214696161282,4.2727062156315885,21.94339068325658
100,N,0,22.29654403567447,0.9486488409836155,0.9435896718994284,0.8897376911515651,0.7752315217054884,0.9283099337072552,3.9352772326345047,19.12516004418801
100,N,0,11.148272017837234,0.994011440545908,0.9931593972117524,0.8381554923220956,0.6934215190314026,0.9343725853423901,4.251082857145466,23.090920990026568
100,N,0,33.4448160535117,0.9530975762240381,0.9553907243231186,0.8997948154229422,0.6667802937998054,0.940267165623456,3.5410844340648167,15.620446479610642
100,N,0,22.29654403567447,0.9182397389582374,0.9099720176515128,0.8737707440696815,0.9014368201089108,0.8945523844295442,3.7173189359056518,17.343092557084248
100,N,0,22.29654403567447,0.9783390665806898,0.9766080094088184,0.9137997012424854,0.7927562942165466,0.9217296846426888,4.240615024720135,22.42292311279084
100,N,0,22.29654403567447,0.9642517648084398,0.9620929191124189,0.8997124596432099,0.8546371427273256,0.9233102030651076,4.249131328398678,22.144350059210755
100,N,0,22.29654403567447,0.8728765483174912,0.8600327160268667,0.9133927002749628,0.985101570686511,0.8875932772003784,3.654381933119143,16.241298655996957
100,N,0,11.148272017837234,0.9954949439863872,0.9937779647037795,0.9064699382852911,0.6480490306598736,0.9057258945639858,4.1786149478427745,22.709562281523947
100,N,0,22.29654403567447,0.9657419207098189,0.9635013993801749,0.9096360213426289,0.8878463896719389,0.8929642956725022,4.269048742007915,22.879750363343437
100,N,0,22.29654403567447,0.9074352347992325,0.900539999553679,0.9142577618981231,0.903790270709296,0.9154411267274489,3.676039549341989,16.411195285207818
100,N,0,22.29654403567447,0.7650355454572697,0.7495071320142227,0.9347696328801345,1.0166906918682286,0.8869618151677269,3.830242484237865,17.85078411863202
100,N,0,22.29654403567447,0.8897461803976796,0.8803091537731422,0.9336602875265025,0.9244466861081884,0.9085745308454902,3.7354819131053945,16.710422059874276
100,N,0,22.29654403567447,0.8233046343799352,0.8540981744736451,0.9112837370937994,1.0374374880463317,0.9012218349119666,3.7274382526821372,16.609253284801806
100,N,0,11.148272017837234,0.988560838861549,0.9886017324057886,0.8557435268712812,0.7428666346202899,0.8688900239796156,4.03379754352301,22.149870129302393
100,S,0,22.29654403567447,0.913241768092453,0.9022871978474983,0.79089550753633,0.9141434925867321,0.8929107258012827,3.5014018567651792,15.646894369611294
100,N,0,11.148272017837234,0.9822302805327221,0.9816647346868687,0.8414490548038698,0.815275657652277,0.8733959668002325,4.072896701740861,22.093194241649243
100,N,0,22.29654403567447,0.9651383509796386,0.9609018093428323,0.8152494545130964,0.7976596940550676,0.9617044190280303,4.2797216430967975,22.585865731945603
100,N,0,22.29654403567447,0.949629548362597,0.9434376437017263,0.8111152867638726,0.892272952013296,0.9028699023501552,3.954066591093666,19.690810176366252
100,N,0,22.29654403567447,0.9549959243080006,0.9555553461455534,0.8824010982063591,0.7450796139535223,0.9464052779127325,3.6996736506590326,17.07905249515033
100,N,0,22.29654403567447,0.9507627447418839,0.9633285911018319,0.8820548589491697,0.5472706520059687,0.9446847632796511,3.627217551628528,16.535088801859082
100,N,0,11.148272017837234,0.9846997191909628,0.9822590235760028,0.8157569863480167,0.7167104098015529,0.9369630489206293,4.1336491651126765,21.837404651263412
100,N,0,11.148272017837234,0.9821629817635821,0.9795429714517588,0.8122928961476659,0.7684911486111171,0.9417936594712817,4.329642252961935,23.888746236713974
100,N,0,22.29654403567447,0.9636781013660076,0.9600840002243815,0.8452878572693721,0.7528350322854609,0.9355156259367376,3.918973744162023,19.445186340244472
100,N,0,11.148272017837234,0.983319543703284,0.9814297208316243,0.88631087730128,0.7463703483740378,0.9250208308208571,4.211583897165133,22.586138673949804
100,N,0,11.148272017837234,0.9926178623836965,0.9925811715556729,0.8594178619081679,0.7051569268196469,0.9210578228273366,4.226685344771011,23.077580392147528
100,N,0,11.148272017837234,0.9820420205178848,0.9804850692130382,0.9159627213243304,0.7801503617245289,0.9242763064665884,4.313034669482742,23.21284844460636
100,N,0,22.29654403567447,0.9691163900830826,0.9665984771271704,0.8836382939551278,0.7996249193865369,0.9322666401295341,4.2501732188189845,22.148842915589615
100,N,0,22.29654403567447,0.9437120051241478,0.9418868606692283,0.9121525907347116,0.8961241297532473,0.9431202594518422,4.2570125344300696,21.46968031950247
100,N,0,11.148272017837234,0.994760424336219,0.993734812120015,0.8852683670239944,0.7507094056776499,0.8977840317305951,4.427546628639247,25.40575917394247
100,N,0,22.29654403567447,0.9746102489419866,0.977251577267179,0.8530341366336432,0.6292530615695189,0.924366065109475,3.6140701275723157,17.249803364925114
100,N,0,22.29654403567447,0.9048219175466612,0.8962129224748578,0.888537300970055,0.9932077724721207,0.8920499740797545,3.7914468950953597,17.54635348102709
100,N,0,33.4448160535117,0.9113292699645777,0.9222350457592277,0.8757348130762547,0.8023862084951605,0.9217965687045259,3.238134023207842,13.253327535427577
100,N,0,22.29654403567447,0.8403842273178387,0.8553736910601345,0.8719065960738259,1.0397701027419535,0.8992394603564925,3.6835581105013295,16.342197210226946
100,N,0,33.4448160535117,0.9401791842916188,0.9616715429265968,0.8268185344230324,0.6133077469482764,0.9247618697312832,3.356240210608325,15.010536608191538
100,N,0,11.148272017837234,0.9886865456212297,0.9855612792780718,0.8020308368545283,0.8017195825466787,0.942272971136382,4.559914979889335,25.736629848692374
100,N,0,22.29654403567447,0.8343510769481963,0.8163837013812779,0.8262563241600516,0.9982960679342541,0.9017973576996559,3.6542341978412116,16.329617106625832
100,N,0,22.29654403567447,0.8326712993322251,0.8151684788142386,0.8216372584020135,1.0144704439185956,0.9443868963731782,3.866018449038748,17.686728859073828
100,N,0,22.29654403567447,0.8904317180332856,0.8877688097753436,0.8885843022508582,0.9249941076316404,0.952476733853721,3.7057600026617434,16.15356908740346
100,N,0,22.29654403567447,0.80966087679912,0.7959216346219967,0.8351768263415861,0.9741786000034935,0.955450369964752,3.962803427962331,18.389368899252528
100,N,0,22.29654403567447,0.8070102898380144,0.8398882696016936,0.8231595297106215,1.0065627543469804,0.9318958007094508,3.8199679073467743,17.251945625701964
100,N,0,22.29654403567447,0.959710388441342,0.9560355883793281,0.868147054062632,0.7429746436006113,0.9414038865241954,3.9529552963884336,19.34152086481412
100,N,0,22.29654403567447,0.8862230591750212,0.8896793081016952,0.8825702204164839,0.9339939895831109,0.9555027162364786,3.562469612617445,15.246396813064896
100,N,0,11.148272017837234,0.9960830806939315,0.9947165884057404,0.9115484671263397,0.6988002709717139,0.9140364487081213,4.312475566675518,23.827858339407385
100,N,0,22.29654403567447,0.9574957970016655,0.9594764175225484,0.9042526130566623,0.8168733287444877,0.9332608631669893,4.153513530234126,21.04949883833769
100,N,0,22.29654403567447,0.8063056037889179,0.7974652988337453,0.9141188245963497,0.9686335166834694,0.9333184359839982,3.975891195854692,18.355296124529396
100,N,0,22.29654403567447,0.9390279909894018,0.9334469288282043,0.9099319426410647,0.7886835552238225,0.9319593617581806,3.9502666014713164,18.837076884517344
100,N,0,22.29654403567447,0.9535787696272784,0.9488686238284821,0.8485929505681075,0.8546473902098629,0.898557180049204,3.8176930286235446,19.14832662604097
100,N,0,22.29654403567447,0.9712615462643808,0.9773359302624915,0.8649593066636685,0.5623771070643224,0.9450560064321791,3.771930478972131,18.08493312645983
100,N,0,22.29654403567447,0.954634412012132,0.9541553682676662,0.9027968988335164,0.8560121107934469,0.927938261333474,4.108199688102386,20.620552787703865
100,N,0,11.148272017837234,0.9957382419100951,0.995820546736952,0.855960231774451,0.7034003253063775,0.8825023641831501,4.196140604450926,23.56774069557155
100,N,0,11.148272017837234,0.9859124448270363,0.9859051785815782,0.8718562938162325,0.5944059437354943,0.8851641462766806,3.6397403364308665,18.091023052893867
100,N,0,22.29654403567447,0.9735719786978605,0.971867844461741,0.8896587960007791,0.7757595327925314,0.8950956750802491,3.8878438044963497,19.650409452712044
100,N,0,11.148272017837234,0.9863599197514994,0.9862486197970639,0.870027393731401,0.8246489840403658,0.906656658854088,4.522108450251374,25.993756715838575
100,N,0,22.29654403567447,0.9018056553799241,0.9041677045356754,0.8999488579652067,0.9357523481613353,0.912509898002432,3.8430484908002027,17.738888698156074
100,N,0,22.29654403567447,0.8505633788916213,0.8353213625207226,0.8642942833398817,1.0270107742536072,0.8844360833496605,3.603708397965019,15.895595454197508
100,N,0,22.29654403567447,0.9200023964575964,0.9119139916208554,0.8476779042778577,0.9434638891602469,0.8948970611002155,3.8083192585653767,17.926154853907427
100,N,0,22.29654403567447,0.9450112482087093,0.9407194758704218,0.8830133558941562,0.9038756158665062,0.9252559685310385,4.144429511299695,20.701622221924673
100,N,0,22.29654403567447,0.8092491496248769,0.8459290891789575,0.8970688961718335,1.0045534009154746,0.9209862797437001,3.8387949171012727,17.281399947614048
100,N,0,22.29654403567447,0.9846656525598444,0.9823884871782114,0.9044969002470132,0.688394899282218,0.9140699912105565,3.996135568135792,20.627859029781625
100,S,0,11.148272017837234,0.9918513864150786,0.9917706225494941,0.8768942170306138,0.6980863040013734,0.9068894798001196,4.125741223916967,22.427155931373342
100,N,0,22.29654403567447,0.8937479453749065,0.8836333426652311,0.8838873024124865,0.9520590610465904,0.9132142211848794,3.756204153565829,16.968211600483563
100,N,0,11.148272017837234,0.9872019362981332,0.9874216528760437,0.8192859132467285,0.6655098313430996,0.8972253179033661,3.791313760127873,19.683682543221693
100,N,0,22.29654403567447,0.8412772307524086,0.8567707465959872,0.8694643913626386,1.0422114976734627,0.9124891956119007,3.7605690853350375,16.802947882324293
100,N,0,33.4448160535117,0.9525870479071058,0.9546335253348002,0.8903005077347924,0.6810956279097967,0.9638973715899811,3.6935432886037076,16.649278304024698
100,N,0,11.148272017837234,0.99568280815163,0.9955538979259824,0.8525589609647112,0.6512124796972107,0.9399171996856927,4.402789594606792,24.47358276970987
100,N,0,22.29654403567447,0.938746823300928,0.9326221281204804,0.8532556283352191,0.8494785792116382,0.9193199382867766,3.9228537373834094,19.173561525225537
100,N,0,22.29654403567447,0.9712446400622113,0.9684841636699297,0.8761976024954756,0.7232974895100999,0.9300282216994388,3.967102325972339,19.879586798209672
100,N,0,22.29654403567447,0.8982720498991089,0.9063999783515675,0.8862503722932368,1.0298538525779388,0.9152589243632495,3.9432157715377723,18.618019552666045
100,N,0,22.29654403567447,0.9422260907862237,0.9492902122069354,0.8766576274351054,0.8293266527580352,0.9398685542858668,4.0068547089465,19.588325174649867
100,N,0,11.148272017837234,0.9851820772815432,0.9850040862184565,0.8307560121950677,0.780927462792615,0.8798264263661854,4.1824582981676555,23.469199295614178
100,N,0,22.29654403567447,0.9446968393992651,0.9396896741322497,0.8484191183365398,0.8581764179600873,0.928854681428933,4.04141251756202,20.19869008562532
100,N,0,22.29654403567447,0.9160092148334376,0.9124261795736998,0.8991503432007281,0.9630903849447157,0.9483257840072437,4.189551479440342,20.26949358120252
100,N,0,11.148272017837234,0.9953365089390926,0.9953099126050288,0.8629623131406357,0.6810809499806556,0.8963995575492648,4.2229182485871455,23.556587397460895
100,N,0,22.29654403567447,0.8301711806581009,0.8557242260088015,0.8786753123187057,1.0470462479613318,0.9298467971292121,3.8544687318019655,17.350292780300304
100,N,0,22.29654403567447,0.8940426833202212,0.883372802994456,0.8708900812499141,0.941828015266578,0.9043653742878733,3.669096833343276,16.475113724243233
100,N,0,22.29654403567447,0.8831959508406492,0.8904269930975759,0.8522794605245314,1.0337698014612642,0.8616532418979707,3.511249811814535,15.702421577865353
100,N,0,22.29654403567447,0.9103609832147531,0.9020537514551599,0.8877418611024945,0.9627916609459061,0.9302193294795592,3.702199543313305,16.540344960748985
100,N,0,22.29654403567447,0.9588295795165633,0.9571990618599346,0.8325724696219116,0.8410970286940193,0.9724430793111514,4.494082503504075,24.375156210034366
100,N,0,22.29654403567447,0.976260941172483,0.9749225707568384,0.902718057733929,0.8041101080607851,0.9338277858928361,4.342797949527731,23.10601989596177
100,N,0,22.29654403567447,0.7795127104005561,0.7752371695475415,0.8716771100513778,0.8930990312740205,0.9386858374718652,3.987257820096968,18.95255044717673
100,N,0,22.29654403567447,0.7802068456219211,0.8147143445189338,0.8774420447071021,0.9336640431002597,0.9155461413026289,3.838501491287969,17.644034497075452
100,N,0,22.29654403567447,0.8736899138865588,0.8774626569169133,0.8132121482928281,0.9788561527008722,0.8872757910558828,3.555909880937256,15.868601692435517
100,N,0,22.29654403567447,0.9637917842328947,0.960488854464474,0.8488792391502098,0.8259114037860418,0.885930100561027,3.9345885291820633,20.484827252725225
100,N,0,22.29654403567447,0.8992840679580473,0.9079487279461483,0.9144622945317274,0.921407530041104,0.9465725639475475,4.061930281743076,19.059582696847908
100,N,0,22.29654403567447,0.928943883994033,0.9217960402297679,0.8898125381338208,0.8375420925432635,0.918209868960619,3.793492902177281,17.646765936544206
100,N,0,11.148272017837234,0.9942807623201589,0.9937874700761933,0.8856476945033358,0.6169078281449109,0.9354494524495974,4.180075201555765,22.368432698729322
100,N,0,22.29654403567447,0.9807344027921823,0.9791834490900938,0.8579614528970317,0.6758501800515118,0.9388485526692983,3.961896947878844,20.531393760175266
100,N,0,11.148272017837234,0.99424014871405,0.9942831253489488,0.8224785540194357,0.6907743095017962,0.9079276935584967,4.137201945072038,22.6547484507507
100,N,0,22.29654403567447,0.8964432123517395,0.8885572988455185,0.8528980547536614,0.9154148654722393,0.9120765686796045,3.5170940719805297,15.330867798429296
100,N,0,11.148272017837234,0.9898233670074172,0.9889459120747568,0.8399407454748398,0.6488959956611904,0.9515730785942614,4.28680374164053,23.407596240951865
100,N,0,22.29654403567447,0.9369269350529825,0.9308959243899289,0.8967503872814955,0.8215523913057884,0.9283876686802037,3.7440031803784755,17.377755123555314
100,N,0,22.29654403567447,0.9710007723409297,0.9717550939608314,0.8887423693708999,0.780124301602179,0.9382936098805844,4.201094609740758,21.733706141203488
100,N,0,22.29654403567447,0.8699873487692209,0.8761452487701517,0.8576119764727675,1.0083028176299462,0.9350481473914593,3.8181875560457543,17.51634993170009
100,S,0,11.148272017837234,0.9835241866806832,0.9823296987147776,0.8765611970875855,0.7750677773965252,0.9353049369249669,4.366158981620798,23.58546894705112
100,N,0,22.29654403567447,0.8564342031298079,0.8597386091751823,0.8743842743407948,1.0217618598801002,0.9114072345744589,3.7618386688637497,16.814628906264446
100,N,0,11.148272017837234,0.9904640529493006,0.9905621562518429,0.8581061932529539,0.7137277055693529,0.8756523326975731,4.026576894920453,22.030227964939897
100,N,0,22.29654403567447,0.9248406708006437,0.9169378569541756,0.8494118168160539,0.8639282555660854,0.9083565008792936,3.71397600911452,17.217565949362122
100,N,0,11.148272017837234,0.9834990702856227,0.9812139260160481,0.8277424931321653,0.7291679825349129,0.945631144271781,4.229076643486451,22.583298575718445
100,N,0,22.29654403567447,0.9467745316925797,0.941608429678027,0.9129719044669844,0.783615082933323,0.9310791901589536,3.967584027390519,19.260672532828416
100,N,0,22.29654403567447,0.9851508003573269,0.9843056693753567,0.9026832376129251,0.752616401783041,0.9290342732181566,4.241131104766916,22.604179886636228
100,N,0,22.29654403567447,0.8917791478783049,0.883065945863699,0.905507302052372,0.9760248483604295,0.9258681627124558,3.819687772452951,17.347305219797224
100,N,0,11.148272017837234,0.995309225281034,0.9931442803023224,0.8060639132527829,0.7376923833811988,0.9467417057964209,4.5618116649046865,26.143413019330893
100,S,0,22.29654403567447,0.95083155964632,0.9539708785722134,0.88292498586535,0.885062054728304,0.9324375647982635,4.293980229487387,22.388213158719864
100,N,0,22.29654403567447,0.9599760376657078,0.9551815862302614,0.8180276933208213,0.8726431472770262,0.9124512871006737,4.067879631850611,20.69791496468434
100,N,0,22.29654403567447,0.9048440198877479,0.9152685985798359,0.8689370650411948,0.8590485159686332,0.9315938931900154,3.4141354003173565,14.588451783281975
100,N,0,33.4448160535117,0.9141070115541756,0.92158843106123,0.894060194895142,0.7351522145926142,0.9597455972567441,3.506692547606051,14.663953887990907
100,N,0,22.29654403567447,0.8219839803653367,0.8510740768131135,0.8769164978251244,1.0246619332535825,0.9122339610596119,3.753593286924945,16.762895337711964
100,N,0,22.29654403567447,0.9291153024294971,0.9241298072105608,0.9198343465385652,0.8340340958848015,0.9435951222746548,3.9441744864444512,18.461172777618565
100,N,0,22.29654403567447,0.9498366260235925,0.9462483401697838,0.8949147325974963,0.9222371699526457,0.9210730275850597,4.2206921506607795,21.61473927680498
100,N,0,22.29654403567447,0.9246888588961115,0.9189580663916199,0.8920577396854614,0.9309315773941318,0.9206144383125249,3.997065856324532,19.160175628309563
100,S,0,22.29654403567447,0.8974019466051218,0.8936209901883907,0.8548204083495701,0.9577719840592597,0.9448916875057726,3.993013053805745,18.61745284591416
100,N,0,22.29654403567447,0.925774013171509,0.9183358241972007,0.8413192017605339,0.913437937809033,0.9407154676919871,4.014266707595954,19.602430108929212
100,N,0,22.29654403567447,0.8711416857009768,0.889691729574453,0.875607675042996,0.7567389751722378,0.9316580191577476,3.5906013931453153,15.765147069550578
100,N,0,22.29654403567447,0.9695782937048774,0.9665100749380517,0.8433667489306725,0.7948583184316714,0.9086103998473342,3.9623761505176405,20.44504480297484
100,N,0,22.29654403567447,0.9272730048127327,0.918732380228999,0.7968283130036804,0.849564612868595,0.8998479019978013,3.697501004379545,17.39338584115209
100,N,0,22.29654403567447,0.979270099540859,0.9772058730840967,0.8105635734548304,0.6947660670572973,0.9187695280812296,3.9359445696570674,20.263699294631444
100,N,0,11.148272017837234,0.9806400789127391,0.9800105656040272,0.8374579945066599,0.768367278505812,0.9582765447177457,4.497519852231951,25.009055629114098
100,N,0,11.148272017837234,0.9964883125763248,0.996471311647273,0.8650358245031556,0.6409416917928159,0.9332069818042984,4.291962187823982,23.56675296462911
100,N,0,11.148272017837234,0.9859437027931286,0.9841907746358685,0.912429645346932,0.7829916525115088,0.9127313527176107,4.338014554870692,23.702775194979928
100,N,0,11.148272017837234,0.9911069604614666,0.990102436915209,0.8329545002396671,0.7502688715803494,0.9281609465105767,4.310825066173338,24.047966310049176
100,N,0,22.29654403567447,0.901764161101815,0.8938982033491623,0.8692848611837903,0.9830339973457508,0.9209792808338046,3.894841561555308,18.0866343525008
100,N,0,22.29654403567447,0.958994139980217,0.9547287778001913,0.8300300538779906,0.7900209248368104,0.9119279454435479,3.86171503837847,19.23789743298181
100,N,0,22.29654403567447,0.97926936128281,0.9775541914625946,0.8759246865933015,0.5457672056259749,0.9213128403118587,3.685225483513814,17.680804606591582
100,N,0,22.29654403567447,0.8668599462855431,0.8536205087458164,0.8388203381100383,1.010996862918109,0.9350902026955663,3.859849956723755,17.3987583676173
100,N,0,22.29654403567447,0.9020469638144463,0.8960858575959925,0.8670591417677465,0.8822527995481008,0.9474855171537574,3.7328718950434085,16.495841958742282
100,N,0,22.29654403567447,0.9514746913671506,0.9607489051991149,0.8955977275880187,0.6369709776844521,0.9574096033085997,3.842559609090016,18.06143151303952
100,N,0,22.29654403567447,0.939758751206845,0.9361207750177423,0.9003638611402056,0.907985435201203,0.9170348044899246,4.055151538915123,19.917537166846753
100,N,0,22.29654403567447,0.8413303841328971,0.8576181573045384,0.9167627046334065,1.0337939667485367,0.8985488695181226,3.7325859505827936,16.628364199522004
100,N,0,22.29654403567447,0.9702013731998792,0.9693785074405146,0.9141677091036927,0.8254428302363019,0.9364567412375059,4.302882165610878,22.60425696410057
100,N,0,22.29654403567447,0.9620592025802112,0.9587405688051145,0.8629163431685537,0.8882442533416512,0.9191759332391144,4.208572256941134,21.92222523629646
100,N,0,11.148272017837234,0.9956671080208941,0.9952487120257401,0.8408988562511512,0.6770735697202994,0.9237835961973435,4.157859471620799,22.775340538843697
100,N,0,22.29654403567447,0.9413510520491238,0.9353080774013101,0.8463442949766246,0.8560516562172593,0.9021642493265537,3.820614416796008,18.686052841056654
100,N,0,22.29654403567447,0.9314488763160632,0.9245705164184309,0.8526912348048276,0.8841114598744504,0.9032878304456878,3.828163695148427,18.444303077422695
100,N,0,22.29654403567447,0.9312551067528753,0.924319992587351,0.8333309171137258,0.8334860681096147,0.9626253173764235,4.048200337294951,19.409730717794492
100,N,0,22.29654403567447,0.9789535527735483,0.9770046314003936,0.8629787888710122,0.6316647889947244,0.945049117880239,4.00633169931299,20.163582892488154
100,N,0,22.29654403567447,0.9565902085091096,0.952363532766865,0.8690869075265958,0.7869731627244806,0.9339223342328531,3.98697889223016,19.7536858376713
100,N,0,22.29654403567447,0.8304034037905365,0.8542630990629936,0.8842337107881305,1.035123973058741,0.9267255746726584,3.7837647476631546,17.012784053029645
100,N,0,11.148272017837234,0.9872668413480659,0.9863406295609597,0.8687441153265113,0.7312289978015969,0.9346355529294557,4.250321894374276,22.94677609656307
100,N,0,22.29654403567447,0.8871398284676334,0.8857563524468002,0.90435761389806,1.0041048516780555,0.9300979640312027,3.948983102719141,18.23522676026058
100,N,0,22.29654403567447,0.9579226654920819,0.954066704068179,0.8474901296139764,0.8737562597503932,0.8619394370274605,3.796980873314657,19.043764609280007
100,N,0,11.148272017837234,0.9850124870674043,0.9835213429462077,0.8307810633576487,0.8329688066007892,0.897429843211619,4.304031278232335,23.932139684389018
100,N,0,22.29654403567447,0.9621649385514028,0.9597542055166687,0.8196959887569083,0.7772528617526265,0.9591887422041195,4.102965131873156,20.75044389873902
100,N,0,11.148272017837234,0.9627141063610583,0.9573020901717247,0.8079602692918163,0.8615415146747049,0.9497576612314595,4.4298860821697845,24.25295260333844
100,N,0,22.29654403567447,0.8838691938941614,0.9081071640868894,0.8977997512860173,0.9136095803012197,0.9450930355576947,3.9151281333554215,18.661215606265706
100,N,0,11.148272017837234,0.9878702358038379,0.9856721123164403,0.9171100382236336,0.6018561953029228,0.9281547665289782,3.9821948469476998,20.347334971346026
100,N,0,22.29654403567447,0.952461069553496,0.9477500076641266,0.8528350302195427,0.8621118793041191,0.9047611953433448,3.9399122087492366,19.968414448805152
100,N,0,11.148272017837234,0.9904788706901647,0.9896901129246937,0.8549140994558618,0.7458296610339461,0.9006144067688174,4.138471972172354,22.418734088000264
100,N,0,22.29654403567447,0.9600761559638534,0.9574256145836864,0.8294457993288421,0.8985705299789557,0.8543415280972404,3.832765778528396,19.89691071007159
100,N,0,22.29654403567447,0.9241940562877682,0.9260068364296943,0.8254626665839035,0.9219874801728646,0.9173459147808548,3.8788883413495587,18.73125002853129
100,N,0,11.148272017837234,0.9857321535526823,0.983915263991409,0.7700055360349823,0.7037584067151521,0.9053279043403667,3.8462124812710585,20.17686019439842
100,N,0,22.29654403567447,0.9746333017691454,0.9708499638949176,0.8039187702561976,0.7867851767333571,0.9222822066574715,4.074227955742363,21.47453872276097
100,N,0,22.29654403567447,0.9148578072911986,0.9086400105339708,0.8471556645659569,0.9608342479350965,0.9202038242087923,3.949265523916786,18.70012882684652
100,N,0,11.148272017837234,0.9939322850489569,0.9930360926964455,0.8354913979627645,0.6700912639716803,0.9520508173066414,4.460048696527533,24.931901622446006
100,N,0,22.29654403567447,0.9728922357870163,0.9683684253976842,0.8035544758294257,0.7846235952941267,0.9384403647043309,4.1384971914903845,21.705602594872122
100,N,0,22.29654403567447,0.9183287592961512,0.9122159934805301,0.8683605659595639,0.8679977211963172,0.9579596238878665,3.935393481220425,18.08985285559011
100,N,0,11.148272017837234,0.9925986396126084,0.9926635884632751,0.8799621676912447,0.768315934724163,0.9245948294189358,4.6353154999656,26.83418323001353
100,N,0,11.148272017837234,0.9896812191299833,0.9891563653225673,0.9076143180077179,0.663177422105995,0.9413109968976044,4.234983576704978,22.631696917326817
100,N,0,22.29654403567447,0.9375983379697908,0.9316312881090992,0.8531705954502384,0.8304629368006757,0.9289788801650797,3.86560654063544,18.516090429835224
100,N,0,11.148272017837234,0.9940232737419209,0.9939288939553048,0.8768148255334851,0.7215676880487734,0.92851381165447,4.503254971680447,25.62091889512897
100,N,0,11.148272017837234,0.9872050597347239,0.9862094305423782,0.8685256085596342,0.792087147962411,0.8685621673631958,4.095702885340364,22.494212474977605
100,N,0,22.29654403567447,0.9565272739382517,0.9521236932847186,0.8310514253498847,0.8714103695277426,0.9011586301103194,4.037604290890007,21.13819997602097
100,N,0,22.29654403567447,0.9391531674725448,0.9478542048280892,0.8083273949329091,0.8843623878373553,0.9037568633555906,3.900134221377914,19.867867387823324
100,N,0,22.29654403567447,0.9430936432901137,0.9663208247136797,0.8479899533538248,0.6794608488631393,0.8997721266328802,3.490234818885515,16.33315063381047
100,N,0,22.29654403567447,0.9399727331155082,0.9403583766767656,0.8132966619506483,0.8124972362782985,0.9242542672077428,3.5469155612228147,16.04357962186909
100,N,0,22.29654403567447,0.9537701705594123,0.9521495160929437,0.8851209818950883,0.6912673584345648,0.9631878141817947,3.889508156765052,18.196978775276975
100,N,0,22.29654403567447,0.8999471618571917,0.88828048092959,0.8208606481756585,0.9101623973932222,0.8996003030121131,3.6841568867705052,16.779417171750744
100,N,0,11.148272017837234,0.991489101692659,0.9877836002615568,0.7839766958173219,0.7319500552934731,0.9455219812432492,4.641219598522022,27.063589155129748
100,N,0,11.148272017837234,0.9904350124379596,0.9895534770175692,0.8556517120889171,0.6411968741033226,0.9360942848082252,4.084582217782287,21.367929437336116
100,N,0,22.29654403567447,0.9587490158509646,0.95346678326285,0.8169890712415598,0.8220737006290781,0.9600841056841171,4.285101569788293,22.31473091898864
100,N,0,22.29654403567447,0.9732844867711995,0.9697118771266157,0.8037610050326509,0.6880767868482742,0.9739030814013596,4.146920179499853,21.521605218323366
100,N,0,22.29654403567447,0.9765423354661307,0.9758165314920308,0.8833746930950378,0.6497298799344142,0.9618435211939809,4.098289857998108,20.819663385433696
100,N,0,11.148272017837234,0.9858804950105401,0.9854612992646775,0.8591195111960259,0.6810685377220762,0.957460172514306,4.239029683940239,22.667078073021553
100,N,0,22.29654403567447,0.8688680424880935,0.8588691506741929,0.9090306058995018,1.0102111071092488,0.9322078495566612,3.850092483551049,17.3060967964219
100,N,0,22.29654403567447,0.9358422936581579,0.9335712000456016,0.9253435415029668,0.904802405715452,0.929126674931182,4.118637060259269,20.208884224239597
100,N,0,22.29654403567447,0.8766992262658038,0.8779626165602123,0.8948560753073068,1.0118339311090288,0.9269626639506009,3.8847510716597418,17.72526249052674
100,N,0,22.29654403567447,0.9239819903620213,0.9202747159411727,0.8301530453610527,0.8777330437775481,0.9161017465464087,3.7471117958335776,17.40865712536535
100,N,0,11.148272017837234,0.9790216802035889,0.9780501444540024,0.8544287549380981,0.7794525113567465,0.8666737758497588,3.8791170841181057,20.574686601386965
100,N,0,33.4448160535117,0.9289776405971195,0.941628380464126,0.8461834569205701,0.6184787415501851,0.9331766825345198,3.3333196679778347,14.049350161984549
100,N,0,22.29654403567447,0.9561865159242197,0.9518618983791098,0.847527086010165,0.755142803946313,0.9040661059775222,3.6460157295089064,17.181569611062073
100,N,0,11.148272017837234,0.9912458873408316,0.9910380262782569,0.7971686841721749,0.772142694488917,0.8980209164696228,4.13670469909934,22.83536549721844
100,N,0,22.29654403567447,0.9210166025188169,0.9166581291350194,0.8548190977995203,0.8190901574781667,0.9304780461351492,3.536566299575366,15.522252300996342
100,N,0,11.148272017837234,0.9930345850848035,0.9895502691980471,0.7908996203223833,0.7437174933222546,0.9494803525860358,4.583121535641093,26.439547833477324
100,N,0,22.29654403567447,0.8545177948774468,0.8590397942305681,0.8517981106652326,0.9906419155204409,0.9311803013655211,3.831530835960846,17.24997249771768
100,N,0,22.29654403567447,0.8826716832247923,0.8743243397781276,0.8810751401093324,0.9997052439885526,0.9574839528135423,3.803888235227474,16.866415063797703
100,N,0,11.148272017837234,0.9944483898446377,0.9941365243803059,0.8576528493721809,0.6748398998443113,0.9500415377015639,4.448137084811823,24.61910029335403
100,N,0,22.29654403567447,0.9080249716324548,0.9111736834094358,0.8483228416507113,0.9090744376065196,0.9574222858081083,4.059548462573401,19.19536135711716
100,N,0,22.29654403567447,0.8164326573705103,0.8029905501584648,0.8833378363339792,0.9868482432500856,0.9335123608521967,3.9332107126173486,18.030322592095175
100,N,0,22.29654403567447,0.9786833326278369,0.9774642360006722,0.8500606356398498,0.7967621373506143,0.9579908297814258,4.4693757069136515,24.20172114631305
100,N,0,11.148272017837234,0.9846736413145096,0.9841152584739989,0.8830032900658996,0.7728111133789183,0.9415175751253709,4.416474795924188,24.068295660984266
100,N,0,11.148272017837234,0.9797575237325505,0.9795115213661316,0.897202308390798,0.8341688138639295,0.9397235639055527,4.527168080912351,25.010668909613333
100,N,0,11.148272017837234,0.9778726465661883,0.9800071906233317,0.7963151867702473,0.6826406500417057,0.9629469616029701,4.33140549890437,24.135750415188983
100,N,0,11.148272017837234,0.9935447959111426,0.993457385605855,0.8898540823258252,0.7079284171074052,0.9392529543404006,4.375227664425641,23.98928180267704
100,N,0,22.29654403567447,0.8309740187538549,0.8263522829339659,0.8516124018329119,1.096888055417216,0.909485016461291,3.707841437201144,16.5239857118042
100,N,0,22.29654403567447,0.9833090683377895,0.9827447493640835,0.8302711378794955,0.6610759960808301,0.90059766896375,3.7398301630838215,18.909942553351037
100,N,0,22.29654403567447,0.9010451567203183,0.9042316613533191,0.8806270577501331,1.0175464759137103,0.9085980054207716,3.8768179038078157,18.187870998858216
100,N,0,22.29654403567447,0.8011507413706501,0.8351699585847754,0.8653472314535058,0.9668409368444479,0.9034243899826868,3.666260759140199,16.423571317678633
100,N,0,22.29654403567447,0.9322749632639358,0.9359648219782937,0.8355933495842247,0.9060315509669941,0.9178553156657163,3.906377725202667,19.232564874254617
100,N,0,11.148272017837234,0.9822045321069631,0.9809389702522032,0.8502908572350866,0.7996545030164638,0.8996041427249458,4.088030205761876,21.86359319466617
100,N,0,22.29654403567447,0.9788640259611051,0.9882071436945352,0.8901633958851304,0.6632432850648893,0.9204127063806654,3.9354069412483956,20.240996021238228
100,N,0,22.29654403567447,0.9396025387279948,0.9549398998657211,0.8467187763756477,0.7227049671423409,0.9312910312909222,3.4077463275386406,15.070378082637166
100,N,0,22.29654403567447,0.9130041471250266,0.9034793177557422,0.8225348973324789,0.9956128180871555,0.9237392114774746,4.00240784349016,19.12507371151378
100,N,0,22.29654403567447,0.9555310875505006,0.9521809991499037,0.8565770030495536,0.8587428944616852,0.9414889380248801,4.200996789244499,21.282447687261378
100,N,0,22.29654403567447,0.7973077920749108,0.8356839226967626,0.8536609799060837,0.9955221154762818,0.9499400242073357,3.877601723405928,17.681762321903665
100,N,0,11.148272017837234,0.9891003127599939,0.9851949323594882,0.7712019364215663,0.6809443309942871,0.9533357863054351,4.296117829085504,23.484084032404535
100,N,0,11.148272017837234,0.9725252714389884,0.9790115196560621,0.8477929565687001,0.7933774642295736,0.9539754006186207,4.39841448971488,23.988964146905737
100,N,0,22.29654403567447,0.8739903919870785,0.8613501963153962,0.8481423425374589,1.0065241233268187,0.9328836137792634,3.842587493309171,17.3591229777606
100,N,0,11.148272017837234,0.988993444707566,0.9885408084840914,0.8868940572244074,0.6994217466307777,0.943501557980873,4.301452949921648,23.168391637666073
100,N,0,11.148272017837234,0.9885214513929877,0.9876164917676821,0.8331398099352469,0.7918252708341762,0.9502870455431429,4.797423967042042,28.077576424378737
100,N,0,22.29654403567447,0.8591353517235152,0.8669094083984075,0.8986045610890885,0.9908914653197813,0.9399256615565214,3.9519408830956406,17.95773604039551
100,N,0,22.29654403567447,0.9806404200507275,0.97954802273188,0.869917068000258,0.8056528814958646,0.943210736760129,4.411068006035842,23.868645690363472
100,N,0,22.29654403567447,0.9251900184913792,0.9214635610616703,0.9206519740498893,0.9375214598226321,0.9205275738106311,4.067489197416295,19.68644931754842
100,N,0,22.29654403567447,0.9151253775800563,0.9088732829276496,0.8825613802280688,0.8915440680594516,0.935245319753743,3.787946697789751,17.23437305626425
100,N,0,22.29654403567447,0.8956034552234146,0.8913956060541325,0.8945332616448366,0.9990921014190558,0.9282583284357716,3.992390048370152,18.675515836552403
100,N,0,22.29654403567447,0.9092190059482149,0.9287744493251275,0.9079387988380593,0.8166533819115358,0.9506024225876949,3.9387675442073364,18.424197459844862
100,N,0,11.148272017837234,0.8959486236413204,0.9059327400773582,0.6051993118596711,0.7774062707963317,0.7993784269565457,2.5508414771743837,12.778362808432167
100,N,0,11.148272017837234,0.9506922259147869,0.9452654091484712,0.8333504103981568,0.9779345240519063,0.881744471396524,3.952640346646345,21.011508657719286
100,N,0,22.29654403567447,0.944154059675458,0.9386668312176938,0.8368096438433331,0.9280102344726388,0.9248025742176963,4.040214434456242,20.164203525328197
100,N,0,22.29654403567447,0.9432750013260124,0.9359215882807775,0.8079312242629575,0.9752435915121229,0.9143618248672835,4.064974841973166,20.868024146160508
100,N,0,22.29654403567447,0.9522358957009417,0.9463228778750272,0.8093401323102564,0.9327511697557035,0.9137555736512951,4.028860836325618,20.63712880188846
100,N,0,22.29654403567447,0.9583387394009782,0.9541757166064365,0.8741553812775804,0.75854600919492,0.9107820258404214,3.6024289433043104,16.970867194463317
100,N,0,22.29654403567447,0.9529928865253013,0.948262328528777,0.8546361371262231,0.9404195150787364,0.8940683223661405,3.9856276097305883,20.337180008841592
100,N,0,22.29654403567447,0.8323260458264585,0.8146298770206722,0.8356662505016316,1.031227993760205,0.8987560874562548,3.5900389169342732,16.005662128271645
100,S,0,22.29654403567447,0.8826484963314303,0.9149270900386169,0.6221805761217091,0.9705534713738487,0.9582533422133308,4.514391852506207,24.050059082153812
100,N,0,22.29654403567447,0.933314561259212,0.9519351021866281,0.8544972967094197,0.6149304785726487,0.9585601118712157,3.6180263415530947,16.487565363917014
100,N,0,11.148272017837234,0.9961697526959075,0.9947862744028771,0.795426568653386,0.7190150246221658,0.9158495140439811,4.306702259936325,24.095336690165922
100,N,0,22.29654403567447,0.8940014317250798,0.8847289483637774,0.7943359619251684,0.9436700555406426,0.9657595848905283,3.876872094107218,18.128265349994102
100,N,0,11.148272017837234,0.9940390536152833,0.993937118951304,0.8540597399147662,0.7044614522946651,0.8861356126687959,4.001057434208364,21.472341776479386
100,N,0,11.148272017837234,0.9877050476232626,0.9887003777426081,0.7954124346883343,0.7503360134499055,0.8796463088052247,4.301289803952974,24.729200377133484
100,N,0,22.29654403567447,0.8611541331699093,0.8474427117354947,0.7477736213815002,1.0382846577699958,0.9685767972182767,3.9389376907662146,18.094581619846323
100,N,0,11.148272017837234,0.9929045843424409,0.9928197184841122,0.84736637880586,0.7703408748866141,0.9342859274080196,4.619031997697188,26.783958887426344
100,N,0,11.148272017837234,0.9830036197604048,0.9813252207063775,0.8709161129050779,0.8526427753582603,0.8853203736938892,4.215614285439089,23.337757983874276
100,N,0,22.29654403567447,0.8631165364652694,0.873424640761444,0.8710659334079158,1.0411241617293203,0.9227507920339805,3.8230054617562783,17.279141926184828
100,N,0,22.29654403567447,0.9684686826039829,0.9648769969342332,0.8293263941499027,0.6939123715773263,0.9449591999591885,3.8217052444318833,18.752475140828967
100,N,0,22.29654403567447,0.9494615189077097,0.9449936851046571,0.869531885719717,0.772216826518692,0.9299387310505264,3.8000231240125473,17.982037701926075
100,N,0,11.148272017837234,0.9790237204084544,0.9763545072753916,0.7842497411472593,0.8091424511560209,0.9280508037701298,4.178099405766369,23.846111472074956
100,N,0,22.29654403567447,0.8870773857572883,0.8754963872864431,0.884839897164235,0.9827396531349847,0.8805475282185977,3.5232113684719244,15.583513839495012
100,N,0,22.29654403567447,0.9355226217036671,0.9334526046968395,0.7569884231745776,0.8184478647123137,0.968331694335014,3.9837773296971877,20.178936829207622
100,N,0,22.29654403567447,0.8810595218666256,0.8779292014090552,0.8878189521926657,1.0079554264723092,0.9283742613145539,3.9213466307691722,17.95094576080595
100,N,0,11.148272017837234,0.9948730036873619,0.9945332277530692,0.8588323722226701,0.637948547229958,0.9248857462062045,4.097340434303706,21.905491098111945
100,N,0,22.29654403567447,0.9067283486503415,0.9031421105520957,0.916291330137963,0.9675501842397921,0.9299575159810006,4.041713473883331,19.13180671466053
100,N,0,22.29654403567447,0.9316069449664515,0.9287998374454288,0.8932827100750744,0.9051369208132406,0.9471032089058717,4.176636941187055,20.47597083090276
100,N,0,22.29654403567447,0.9473286402511779,0.9464510908248633,0.894863207570094,0.7531817467395103,0.950142123786543,3.740458791428771,17.216330581086314
100,N,0,22.29654403567447,0.9172790158215887,0.9098116589866976,0.860713618483113,0.9597648032152775,0.9214017601907017,3.968122062730676,18.80299240351527
100,N,0,22.29654403567447,0.9605830046159742,0.9706653069474005,0.8479819765585745,0.592050344844489,0.9347829006565257,3.663732917697815,17.209135105651313
100,N,0,11.148272017837234,0.9915658316605958,0.991200588952442,0.8491629569567509,0.7775066919174962,0.9446306111330597,4.599756897274148,26.216405258065162
100,N,0,11.148272017837234,0.9903390535246898,0.9897310391667489,0.8844638441291995,0.653376404032481,0.9388601014957014,4.135351200968443,21.857841941551683
100,N,0,11.148272017837234,0.9876757133460331,0.9866392517568819,0.8432622262124957,0.7972652681179481,0.9444721344568336,4.5885954652260255,25.864975352885512
100,N,0,22.29654403567447,0.8971494199899757,0.9031807881282978,0.9052682299537457,0.9483900837822745,0.947982665832198,4.085965915262884,19.195773654414314
100,N,0,22.29654403567447,0.9614186371254075,0.95931790764369,0.8797574940120243,0.8544989475663517,0.9429047777618396,4.291359461280315,22.101425882057516
100,N,0,22.29654403567447,0.9413930982730864,0.9350000036058508,0.8294329666209834,0.9320058373751495,0.9266099267957297,4.147469294115335,20.762160666068883
100,N,0,11.148272017837234,0.9780201279239834,0.9750139275020089,0.8189230001050352,0.7468504399766298,0.9633874037595129,4.312252183383796,23.170358551610775
100,N,0,22.29654403567447,0.9571714568028846,0.9717866498963136,0.8883756806131059,0.667985612886877,0.9522580636433774,3.901061267098683,19.081264805099273
100,N,0,22.29654403567447,0.8437944382294971,0.8709804027301635,0.8043913765831716,1.082952236159068,0.9561359884754291,3.9587227712440938,18.06521501513617
100,N,0,22.29654403567447,0.8391710717360198,0.8220013079446497,0.8568632083337853,1.0377400947078048,0.8512275034181916,3.3479421906449724,14.585193779540264
100,N,0,22.29654403567447,0.9155751840073152,0.940445898375891,0.8755351577036308,0.7546271183272267,0.9209509267996043,3.598655841337227,16.457469235596278
100,N,0,22.29654403567447,0.7887518084094389,0.7698842431443762,0.8497355266194063,1.0241383914305358,0.9272922826031708,3.8395489990562175,17.931224493279505
100,N,0,22.29654403567447,0.8406764879598677,0.8701821510247112,0.8437478749127447,1.0868640542451047,0.9304256619882039,3.8511212361579865,17.386399594852904
100,N,0,22.29654403567447,0.9214839709960385,0.9162988163819085,0.8427370310810708,0.9766569433169194,0.9317635153204384,4.07403414827504,19.90082838179351
100,N,0,11.148272017837234,0.9833678078022788,0.982195895359344,0.8497939692252964,0.7725744647500926,0.8836579614913975,3.9753246526145953,21.330189758684273
100,N,0,22.29654403567447,0.8613091609335068,0.8471541005356816,0.8696338314349925,0.998855586621149,0.8925400944846767,3.6516571060269185,16.296899318276388
100,N,0,22.29654403567447,0.8925213599684346,0.8847086221856885,0.8585323641931262,1.0042575701172765,0.9521011340303012,3.6295230188640164,16.08419080816087
100,N,0,11.148272017837234,0.9866979065723224,0.9879369954273086,0.8552315598977949,0.7550474928178453,0.9380163498076622,4.623497733500125,26.88811943946279
100,N,0,22.29654403567447,0.908551957509483,0.9028113054434905,0.8127448558732695,0.9741474338783566,0.9558048639786546,4.083607876348397,19.858610271734
100,N,0,11.148272017837234,0.9866509394992201,0.9860864737087929,0.7946138935467664,0.7645001074844271,0.925060990587179,4.306803753478394,24.600026427748567
100,N,0,22.29654403567447,0.9320685516402449,0.929371461229367,0.8314149660081648,0.9415019140028531,0.9212741737298584,3.9949465828107265,19.660537640973015
100,N,0,11.148272017837234,0.9741659878697609,0.969832273367019,0.6894797725331007,0.7899137571025894,0.9429881359023813,4.4800883756590135,26.447169811483988
100,N,0,22.29654403567447,0.8450335854034056,0.889351180658121,0.808539081394531,1.1128966936460798,0.9186886985808792,3.7203466605427664,16.87582300391047
101,N,0,22.29654403567447,0.9273749278691257,0.9123207962013005,0.7666832823530388,0.9615922026895202,0.8593936884483396,3.378364903056116,14.758561282584493
101,N,0,22.29654403567447,0.9724188393389785,0.9657440917937147,0.7465060393381404,0.6924348346512081,0.9058720241889484,3.8000124151870454,19.131059437994637
101,N,0,22.29654403567447,0.9396744376101519,0.9294184550458024,0.8179740699430137,0.8083990162825779,0.9124356402276965,4.0544217863323295,21.003668323425583
101,N,0,22.29654403567447,0.9356539189574419,0.9243910702439748,0.7180651937961338,0.9073458724233375,0.8929557657277665,3.514426942490169,15.548267764553065
101,N,0,22.29654403567447,0.8806715071756012,0.8461556801979283,0.6966106889383449,0.9545675547824665,0.8739645636251753,3.424457187967667,15.639835497870651
101,N,0,22.29654403567447,0.9251655862723586,0.9121446208386181,0.6664969298224194,0.8652538001697836,0.7833937194552626,2.7276200378980726,11.395222217235194
101,N,0,22.29654403567447,0.9546137542736929,0.9432577847608407,0.7323804175314274,0.9396298664120505,0.8665911022828863,3.197530229569871,13.832659090251921
101,N,0,22.29654403567447,0.8789639966278426,0.8505831368354521,0.7487241207845207,0.9319592237692482,0.8774872974022521,3.5864943745669335,16.407256309045856
101,N,0,22.29654403567447,0.9202677681005804,0.9046801242757638,0.8231788678663825,0.8515378997426145,0.9011102763642165,3.8143222156136543,18.851148575744073
101,N,0,22.29654403567447,0.9328456399931881,0.9174306988664526,0.7211526299703955,1.000803176540779,0.8526350867433117,3.262110889883197,14.245958587751591
101,N,0,11.148272017837234,0.9658382915159964,0.9644366299301513,0.8369519057511673,0.6543367372946518,0.921114523131933,3.949911253794492,20.2756875295571
101,N,0,11.148272017837234,0.9904263605454882,0.9854511366285716,0.6677490008599093,0.7225729826373284,0.8505445415342403,3.6561879993751747,19.03551322923686
101,N,0,22.29654403567447,0.896006671125127,0.8724430039032546,0.6644314203203403,0.9351052163862579,0.8540458265871246,3.330784862172238,14.763549823891054
101,N,0,22.29654403567447,0.8887054532577211,0.8674759369276269,0.8239226277570458,0.873690895540595,0.8964632448866022,3.6762783729104487,16.94662101556356
101,N,0,22.29654403567447,0.8932079559740514,0.8598802957823825,0.6765755246774204,0.9057453295489183,0.8548083033133715,3.3243933655963644,14.985315660812185
101,N,0,11.148272017837234,0.975103592314078,0.9699631742715308,0.7129309635173634,0.7028214502034132,0.8478154047890534,3.5096228076219207,18.05056051057173
101,N,0,22.29654403567447,0.9466613692346658,0.936369734918285,0.7627741237559884,0.9461888715059683,0.8928119474535563,3.453423425234017,15.10123553154756
101,N,0,22.29654403567447,0.9733385193358819,0.9664118405692734,0.698793443468877,0.790949366166694,0.8548048483547735,3.3442491419623517,15.33199281092837
101,N,0,22.29654403567447,0.9625335155286878,0.9523906099949274,0.7211611479176725,0.731850029089359,0.8943686397543116,3.765525169739369,18.812453671748457
101,N,0,22.29654403567447,0.9510562959355952,0.9428394850809169,0.7624761444708111,0.8694468132246427,0.905361369965686,3.65879295030099,16.4684715172375
101,N,0,22.29654403567447,0.8759294384174501,0.8576979611095893,0.7357364559012473,0.8317997962239307,0.906284059132161,3.649983227786631,16.83146394591433
101,N,0,22.29654403567447,0.9177283821293775,0.8991455679994008,0.7647803684580784,0.8649052397204563,0.8877783312344556,3.7799537089886033,18.517851453945184
101,N,0,22.29654403567447,0.9728797052977354,0.9659220594989133,0.7377631015537637,0.6938351069692665,0.9006913393825842,3.704578838619959,18.690813094996034
101,N,0,22.29654403567447,0.900599092704055,0.8858692498221401,0.7851139148868836,0.8948048311733339,0.9041437941689878,3.5938730432290487,16.39321131700069
101,N,0,22.29654403567447,0.9259678578707335,0.9073425250506846,0.7371532690624788,0.8353928905779554,0.890994761410999,3.709189220712277,17.811558081507442
101,N,0,11.148272017837234,0.9715671621578943,0.9623019306692443,0.6861673819986549,0.7353174141305012,0.8777539906365343,3.69765777855116,19.130928137815978
101,N,0,11.148272017837234,0.9874343965337361,0.9847452044723184,0.7532070364983787,0.7291198207714,0.8665882200673424,3.7617919157280855,19.960973263090867
101,N,0,22.29654403567447,0.9061985694003365,0.8923726209354047,0.8477167368069269,0.8513124547975801,0.9045694741017455,3.786898311513273,18.315995120980382
101,N,0,22.29654403567447,0.9321941457176477,0.9191792129284412,0.756695734333831,0.926199688860421,0.8798442016149335,3.5070873227227275,15.508625415526293
101,N,0,22.29654403567447,0.8525459750005465,0.8830552003791711,0.7417480797813177,0.7739527488660196,0.7713001689953536,2.655670062733344,11.640237426939148
101,N,0,22.29654403567447,0.9722189962351557,0.9636120001588084,0.6608503808971791,0.857922583384804,0.8467148405203221,2.966340234042886,12.611798293131926
101,N,0,22.29654403567447,0.9788420647761777,0.9681048067473788,0.6071778341554294,0.7250418144001254,0.8324627295894649,3.1848950846050017,14.77083731780868
101,N,0,22.29654403567447,0.9278717254805925,0.9183472014437977,0.7906368981099897,0.9343402387862817,0.9237542747210534,3.55565056255216,15.688288164222524
101,N,0,11.148272017837234,0.9879643002823828,0.9850082271645678,0.7593194200661175,0.5642768502209833,0.9079115520908511,3.5715460345683883,17.726914190524734
101,N,0,11.148272017837234,0.971720766185139,0.9646887550239703,0.6806383208304488,0.5953346909261096,0.9035775846158617,3.2645866154672305,15.268825918982868
101,N,0,11.148272017837234,0.9603883502061282,0.9527680183243258,0.7674393325217489,0.6468316454926245,0.9203684864985945,3.4458124176775473,16.7045925133795
101,N,0,22.29654403567447,0.9736200516878495,0.9708324619682085,0.7458789784301871,0.6899196757611424,0.9140800891870539,3.481068410878412,17.009825758892198
101,N,0,22.29654403567447,0.9844430186251787,0.9836006318978278,0.8320037122579258,0.6762523990914947,0.9256718664320065,3.7794213193987356,17.943523544010382
101,N,0,22.29654403567447,0.9647306823720656,0.9605809770996887,0.8435185406499829,0.6841567994311735,0.9235170580285489,3.9855121161909,20.41777182600973
101,N,0,22.29654403567447,0.9692185485522365,0.9713444571629761,0.7919921040909765,0.6639849460469134,0.9220280238696106,3.5450902322814675,15.906406726436533
101,N,0,22.29654403567447,0.9514586533059162,0.943445593428144,0.7535543763039844,0.8715294085418648,0.8975777644516642,3.6588906171892708,16.659332909385196
101,N,0,22.29654403567447,0.9660505186216092,0.9694996518330738,0.9032951969730757,0.7670627682463961,0.9319449411557974,4.02694924281389,19.61075227416347
101,N,0,11.148272017837234,0.8302146530345086,0.8834009673842262,0.6938545379739401,0.5417085507599957,0.6399796362410946,1.7575331530594347,7.711953841052625
101,N,0,22.29654403567447,0.9082122853237908,0.873035313480407,0.567266963054837,0.7723661576000329,0.8600067042649605,3.121341457037083,14.445057375920824
101,N,0,11.148272017837234,0.9543001053916789,0.9552760599681791,0.8235377818280213,0.6894519865626276,0.9122346276984499,4.0411578959754735,21.15368032282503
101,N,0,22.29654403567447,0.9559244843754287,0.9559854457798712,0.6877171496049123,0.6379508769616782,0.8653085117696723,3.270530709688591,15.669687568777196
101,N,0,11.148272017837234,0.9552397353390171,0.9440602558723515,0.6457312801646469,0.7295930257769042,0.8121988485875022,3.347359060885297,17.768761956041573
101,N,0,22.29654403567447,0.9476643173186233,0.9409376289439713,0.8362611567287763,0.9304030559640069,0.9452760375438906,3.432074265243687,14.572855574335293
101,N,0,22.29654403567447,0.9694744452791437,0.9610785116087607,0.6948068644677728,0.8451383539144589,0.8906648096329415,3.1247840458497147,13.413363199786493
101,N,0,22.29654403567447,0.9919811671213609,0.9897919462783193,0.7917736720442489,0.6023093002149394,0.9318219368437985,3.6086534054310904,17.32969954547331
101,N,0,22.29654403567447,0.9272755498149248,0.9157799062450042,0.7784308139623012,0.9445379372040108,0.9276603847225156,3.573571941412955,15.829187529064605
101,N,0,22.29654403567447,0.9528478067025379,0.948219614263116,0.8216043195127789,0.9045208308196484,0.9477374722491587,3.530087419149,15.212801931022156
101,N,0,11.148272017837234,0.9772932465407438,0.9744830494784226,0.8091863104782854,0.6175819524197772,0.9482501965198479,3.8439786158290747,19.34256234216543
101,N,0,22.29654403567447,0.9886265238411095,0.9837601110581713,0.8506042182111437,0.6674753037000172,0.9347495633127652,3.5647322290653363,16.524044090938986
101,N,0,22.29654403567447,0.9011739117832243,0.8927270294139247,0.7779165449808383,0.8267892382020827,0.936316416252354,3.6586752004917833,16.470888616869242
101,N,0,22.29654403567447,0.961072101674686,0.9541838198735394,0.804191102264332,0.9378621509825246,0.9399373269943333,3.3640184792835415,14.123684231081649
101,N,0,22.29654403567447,0.878680881177463,0.8728289752911412,0.7505609693681964,0.7176442735005926,0.8206978475959762,2.6951444769818367,11.768028781068146
101,N,0,11.148272017837234,0.9818302362704308,0.9778423032537312,0.7559546603414362,0.6643381997211643,0.9203419423541872,3.91098250453201,20.316486883413777
101,N,0,22.29654403567447,0.9928779837649838,0.9927854053414428,0.7940027380413636,0.652794635242069,0.9382675534178402,3.808254625005436,18.54866919647091
101,N,0,11.148272017837234,0.9707866479986869,0.9667658298889182,0.7497601756450017,0.7262420481373306,0.9396489674495079,4.228611611961153,22.82156556631309
101,N,0,22.29654403567447,0.9691849127172568,0.962219331134407,0.7496028450679486,0.6871038891492247,0.914573070393457,3.8464479925246846,19.565554939550836
101,N,0,11.148272017837234,0.983129897981222,0.9776779145079447,0.8326085406562603,0.6159908171850019,0.9298965360233986,3.832919765226202,19.502109079550724
101,N,0,22.29654403567447,0.9506018324460792,0.9458525035191329,0.8316852161842305,0.8895874039677691,0.9367222168255643,3.5240898380792354,15.247065901014691
101,N,0,11.148272017837234,0.9866974307553594,0.9873336964622842,0.8367963889749275,0.5787013919365429,0.9512747211234805,4.028475154687564,20.630552479854284
101,N,0,22.29654403567447,0.961400427901393,0.95876780262343,0.8624187397273806,0.8281397378063173,0.9339797792115218,3.7044205791172002,16.53745508383358
101,N,0,22.29654403567447,0.9914822152727257,0.9905598470800608,0.838824872899627,0.6055605331940361,0.9396447274437307,3.7527994891301226,17.970743281817604
101,N,0,11.148272017837234,0.9747221811930024,0.9700495563195237,0.8190530383072236,0.6887800612984599,0.9316026224733045,4.027279736749876,20.97757390681907
101,N,0,22.29654403567447,0.9928905653871269,0.9915715021861895,0.7823785617331328,0.549246083404946,0.9263019531952972,3.6311822965586065,17.42985732581599
101,N,0,22.29654403567447,0.9751129985278543,0.969998309173152,0.8135526015723863,0.6413492568997889,0.9335340129073268,3.7811793447692925,18.626360076896734
101,N,0,22.29654403567447,0.9347891808460997,0.9259476764556729,0.7459345477773468,0.9184369672048224,0.9332077153135596,3.5831003698536676,15.730347171728729
101,N,0,22.29654403567447,0.9828183467209478,0.9827166045433724,0.7945806482913351,0.6768110651726378,0.9454209585791806,3.692990240592157,17.031562318689744
101,N,0,22.29654403567447,0.9781105334143334,0.9742283043451854,0.7720628760733166,0.7850081618124122,0.9239474730236708,3.578020457886884,16.089672241490742
101,N,0,22.29654403567447,0.8738555529222213,0.8501087094491534,0.7826623728136143,0.9208951853574268,0.9366096741792562,3.805312052901932,17.526089398095362
101,N,0,22.29654403567447,0.8920976123546559,0.8648624481234024,0.7209887224837996,0.9141750591993008,0.900871875442738,3.7600656027426838,17.60935121534042
101,N,0,22.29654403567447,0.927470010754815,0.9174292946852498,0.8002042062444296,0.9063548903685381,0.9236056774683888,3.50525917903661,15.360577351002561
101,N,0,22.29654403567447,0.9236113501329933,0.9171251949869779,0.8224111170657544,0.9201977744126859,0.9406907253783112,3.7510134391095717,16.82354238217681
101,N,0,22.29654403567447,0.954987403356512,0.9480372500042301,0.7217711522830752,0.8244075741249701,0.9156856472382662,3.656753704212765,16.461572756717676
101,N,0,22.29654403567447,0.9907678943522288,0.9904869230815441,0.8369223132873479,0.6613465969479566,0.944141222599517,3.7682001635141447,17.886350404352218
101,N,0,22.29654403567447,0.9226232324638269,0.9138882259447855,0.8061482101594302,0.9136550276260077,0.926666199321083,3.6580912430888453,16.319035546883473
101,N,0,22.29654403567447,0.9586771695498538,0.9545095644760673,0.7438002935905372,0.7782880838481424,0.9288958966722496,3.7622006287954757,17.159500215026217
101,N,0,11.148272017837234,0.9935115686614889,0.9918154061843875,0.7159968322472093,0.5675259768920067,0.9309762625968394,3.8092806870403306,18.96742243089249
101,N,0,22.29654403567447,0.9347953098820393,0.9208379305914408,0.7660010856207456,0.7795292779989076,0.9322265335103279,3.761099505428517,18.091013520706202
101,N,0,22.29654403567447,0.9954803997622134,0.9946017746568312,0.824554128245434,0.6075398294897976,0.9340922018179676,3.855093447131601,19.321138489439285
101,N,0,22.29654403567447,0.9937774388682913,0.9927777403951364,0.7920279878980717,0.6755410135165514,0.9128629601508446,3.802175250549514,19.25989181694601
101,N,0,22.29654403567447,0.9460402227690939,0.9395062949340479,0.8008452711477577,0.9637685830645951,0.9395640685477662,3.647391831786474,16.041362275173363
101,N,0,11.148272017837234,0.9908405261354087,0.9899797305581781,0.7094450721315613,0.6906055946675977,0.880656607163969,3.707015783765539,19.2941070576213
101,N,0,11.148272017837234,0.9719713371709889,0.9661693529987123,0.7806248027006346,0.6930943740075274,0.9282567657717788,3.8770452777301236,19.970545021032223
101,N,0,11.148272017837234,0.9870806616850779,0.9847547306404129,0.7974140943901966,0.6059062114420319,0.9238304868373309,3.933396309887166,20.65896489074329
101,N,0,22.29654403567447,0.8673435575542067,0.8359753503670797,0.7556935162221183,0.9555822174325731,0.9020621077928661,3.5210406267604544,15.761157146901168
101,N,0,22.29654403567447,0.9664650828384301,0.9576916668751454,0.8218922227201295,0.6823564387289232,0.9217928645560034,3.7163579290118034,18.45095729967902
101,N,0,22.29654403567447,0.9957667859267446,0.9945024294813752,0.7783225099234858,0.6409348983086096,0.915279195774278,3.766805444455595,18.97285869224705
101,N,0,22.29654403567447,0.9700669403398535,0.9671077417393592,0.7800720748580392,0.7899843657914802,0.9374359597388336,3.563609569154246,15.761375862292862
101,N,0,11.148272017837234,0.9959131992390788,0.9964127863341401,0.7749482189350096,0.618116988754617,0.9282206423771223,3.902822936822233,19.728422996135734
101,N,0,22.29654403567447,0.9862712221007189,0.9835770010391347,0.7833502372829134,0.7320835370511164,0.9209506762071621,3.521158590579009,16.033353753844686
101,N,0,22.29654403567447,0.9218175179561939,0.9136061184404582,0.7720751963941763,0.8797943097762626,0.9325271555129585,3.5931279648378647,15.890132049844423
101,N,0,22.29654403567447,0.9605399635989139,0.9553213047170259,0.7872410628526182,0.8923301390464254,0.9224423358265043,3.4651629521080975,14.991368889144097
101,N,0,22.29654403567447,0.9616973192017348,0.9585794528928198,0.756930241215928,0.6294313749919851,0.9417343473398474,3.7421414785806,18.11096650237086
101,N,0,33.4448160535117,0.9114048405810814,0.919822919117658,0.7578235973284754,0.7985546643508066,0.8848102154668557,2.5640236056060877,9.794817436648536
101,N,0,33.4448160535117,0.9225327139966887,0.9094866567071888,0.6520918400604514,0.8827621383500108,0.8812991576599922,2.7034154296726967,10.619481817287797
101,N,0,22.29654403567447,0.8848121129957004,0.8775477774049218,0.7943374608227031,0.7912359263769606,0.9598848772435031,3.3979663141325367,14.66996004838426
101,N,0,22.29654403567447,0.9119788311358744,0.8992682464294726,0.8196733229374998,0.799645756960025,0.9556848493649707,3.7297077901122457,17.47498523827383
101,N,0,22.29654403567447,0.9752678384928244,0.9724209350111056,0.8078670853483587,0.6239401728432056,0.9496530131167102,3.852248229054042,19.35286500651167
101,N,0,11.148272017837234,0.9857376016591578,0.9867275737633902,0.8314819286917214,0.5569729680224738,0.9483343261897426,3.99171635707271,20.169368087946815
101,N,0,22.29654403567447,0.9049230448400056,0.8959073740374436,0.8476418980750522,0.8691873436858706,0.933143615734792,3.724293935816061,16.871989636244614
101,N,0,22.29654403567447,0.9743472058471543,0.9710569920049122,0.8704381625653089,0.5970897019395884,0.9489186853523307,3.843168775592293,18.972750410881357
101,N,0,22.29654403567447,0.935693651023427,0.9242865827534267,0.7751834855396555,0.786937947652384,0.9355638082921266,3.9105430041055045,18.991460357674068
101,N,0,22.29654403567447,0.9338113011676956,0.9225121504552237,0.8443494983117761,0.7287823170832504,0.9462740534675735,3.7248337049104774,17.45672612102694
101,N,0,22.29654403567447,0.9412735710868451,0.9363438074639782,0.8496253099898906,0.9033459514973173,0.9375106172213753,3.6194770967775765,15.850170291524055
101,N,0,22.29654403567447,0.900624821468966,0.8893191340971361,0.7010086222328374,0.8244150672642554,0.884698569591171,3.435937131574084,16.58883165469151
101,N,0,22.29654403567447,0.9760756644427365,0.9786865667919646,0.8920449389765033,0.6157869410213662,0.9694569618971218,3.729622866393696,17.367817903368657
101,N,0,11.148272017837234,0.9742704047367337,0.9679229767114673,0.7931950683699961,0.676917945625653,0.9239539228504963,3.8032587519211853,19.444619444726985
101,N,0,11.148272017837234,0.9834124249799249,0.9799366421230152,0.7933210430911265,0.59916590778676,0.9319262231736768,3.7703773173153037,19.00442586052723
101,N,0,22.29654403567447,0.9871952407946408,0.9850710334874532,0.8568550512373199,0.6369143891941267,0.9466732182581694,3.632497459632955,16.969155507326906
101,N,0,22.29654403567447,0.9344441160268712,0.9209184427499157,0.7874535354248523,0.7816819875090932,0.934112508405949,3.755269369937209,18.045580421683347
101,N,0,22.29654403567447,0.993884471540572,0.9927037333705724,0.8209912480606023,0.5863334954943923,0.9344672821385022,3.741854879253103,18.435882711529768
101,N,0,22.29654403567447,0.9794499070726733,0.9748551414511545,0.8763013389965824,0.7648681758817314,0.9342360631701161,3.5799015773345384,16.002210944135783
101,N,0,22.29654403567447,0.9893017684120685,0.9874716504245626,0.7891401231664315,0.6696987573068435,0.9318579352473552,3.512887132078104,16.159060954319095
101,N,0,22.29654403567447,0.9341379688544329,0.9295241271915433,0.8178756910785845,0.8552101667167644,0.9437683913162993,3.4607555123068336,14.855100914781817
101,N,0,22.29654403567447,0.9286045094386006,0.9155592343357082,0.7298319547512901,0.957447288709297,0.8924154839443683,3.415537375778473,15.039999159093949
101,N,0,22.29654403567447,0.978704069180146,0.9788513642706592,0.8539436107164455,0.734991631743026,0.949683794689265,3.627354810842212,16.17711906480934
101,N,0,22.29654403567447,0.8508893290279022,0.8214942941472414,0.8008382048034339,0.9160726028360648,0.9375320046282383,3.5568439176484197,15.574752752369578
101,N,0,22.29654403567447,0.9766879397296965,0.9717545350822031,0.814590361949481,0.7906546957560636,0.9285298106994031,3.4221046827210917,14.948738264285145
101,N,0,22.29654403567447,0.9294929150898562,0.9171975336856982,0.8532653602397375,0.7370115984584449,0.9496264277471044,3.706515567075921,17.3250204718597
101,N,0,22.29654403567447,0.9387868322330823,0.9292821161338084,0.8127216396030174,0.959560952350459,0.9196821390638036,3.498007089649706,15.172927127605561
101,N,0,22.29654403567447,0.9598636729549022,0.9519955135606676,0.7693626939837551,0.7486605409913498,0.9247377797657456,3.9593977914052485,20.22209395990851
101,N,0,22.29654403567447,0.9498368830573535,0.9414871766400794,0.8170260881372097,0.7557515427376514,0.9394928341819492,3.9400401117964416,19.72631136207426
101,N,0,22.29654403567447,0.9089109366551666,0.8955397823101954,0.8130740268479341,0.8883246921904743,0.9120280133854647,3.5190767864804267,15.757737489457783
101,N,0,22.29654403567447,0.9902326410868649,0.9875947766839702,0.8151355787458112,0.6089132604222576,0.9366244866807875,3.535718009339425,16.50006530968886
101,N,0,22.29654403567447,0.9345088680308137,0.9217631061202124,0.8105489524917291,0.771780644220611,0.9395782066511462,3.7731720658824877,18.12241309469203
101,N,0,22.29654403567447,0.9576568642250144,0.9499178110189315,0.7944351870681131,0.9141899596970092,0.9161901080637425,3.5063608525017527,15.296490896885809
101,N,0,22.29654403567447,0.9853513095581959,0.9821716275638906,0.7708126663131089,0.7025746210673314,0.9182568594155459,3.4630633788757503,15.72019901648207
101,N,0,22.29654403567447,0.882895148022163,0.8587609323195758,0.8108884697527192,0.875550424015664,0.9286527415550941,3.584538607877894,16.090783858401338
101,N,0,22.29654403567447,0.9203635612836049,0.9077562405127759,0.8392543700700655,0.9272537332762985,0.9056312941340393,3.504217233682672,15.468857067804098
101,N,0,22.29654403567447,0.9822711674806163,0.9796550577784199,0.813071757067021,0.7062646202490295,0.9436899995482075,3.480640272581102,15.494319232603653
101,N,0,22.29654403567447,0.9669220684915565,0.961337364690921,0.8654808129013725,0.8344150340194242,0.930122931012416,3.4421305995204694,14.781220989706206
101,N,0,22.29654403567447,0.9726540971512926,0.9678660543552018,0.7674612821860067,0.6669717577048162,0.9343448582981366,3.8454111080027893,19.416585418024486
101,N,0,22.29654403567447,0.9870751070254679,0.9850469137409753,0.7840074863014902,0.7171338637881817,0.9288065056168033,3.5174846835939215,16.005096431566614
101,N,0,22.29654403567447,0.949850774146586,0.9418700267300291,0.8804593901464355,0.7213997309612643,0.9307259001536223,3.883185129802485,19.319763297314847
101,N,0,22.29654403567447,0.954949574122214,0.9506286358255691,0.8350054149646057,0.6676126955820992,0.9594686961151756,3.859704980342152,18.657915370850223
101,N,0,22.29654403567447,0.89339046529568,0.8880358455485381,0.8325675783766333,0.8489540400220719,0.955451946558745,3.805550076929564,17.438450958504596
101,N,0,22.29654403567447,0.916815117466566,0.9001111084216863,0.8231490729655069,0.7868929972422968,0.9404950536821209,3.603323353355821,16.586224724111915
101,N,0,22.29654403567447,0.9438574615901848,0.9389610708329256,0.8014278099851365,0.8940283426273786,0.9358363345263704,3.486197644184536,15.027988154294901
101,N,0,22.29654403567447,0.9923297033180739,0.990463231949,0.801681554112915,0.6713774485533806,0.930179447691266,3.469891925040024,15.927905304792121
101,N,0,22.29654403567447,0.887258721248293,0.8663474783231002,0.8214132932882093,0.8608442409257961,0.93979924236173,3.6229144674386666,16.368025988439737
101,N,0,22.29654403567447,0.9793617704534838,0.9765648472718017,0.8025003306061881,0.525769198499582,0.9352093052502551,3.6223052171487997,17.329244471363857
101,N,0,22.29654403567447,0.9964483845215447,0.9958358997568308,0.754735516311721,0.6335949427123779,0.914367893379251,3.6674325114235167,18.10266018346169
101,N,0,22.29654403567447,0.9718046440440142,0.9702384175585989,0.8320883188519157,0.762902770031314,0.9482137882441642,3.490700894745303,15.14385807594966
101,N,0,22.29654403567447,0.9472854952395056,0.9389135892699946,0.7287422264045332,0.9142396554597304,0.9204138247502766,3.4969780774342807,15.244262778103273
101,N,0,22.29654403567447,0.9254098510890567,0.9119480095671201,0.8265409420977956,0.7613627136679928,0.9472013633404726,3.727135980493165,17.373493140864298
101,N,0,22.29654403567447,0.8454954495155622,0.8159931749933406,0.7592130834693519,0.8996333808911762,0.9471632283183201,3.7532051844623457,16.69351986227738
101,N,0,22.29654403567447,0.9815848852251235,0.978232910030972,0.7698087978063209,0.5933836262190413,0.9280868347549749,3.698819886518212,18.083617191688028
101,N,0,22.29654403567447,0.9741675649442514,0.979324506052778,0.791161687400667,0.5521455117156462,0.9688433815877271,3.9822467023482444,19.666032970162988
101,N,0,22.29654403567447,0.9242782739027133,0.9110452819790361,0.7905962290802273,0.7559104656507427,0.9456891051841134,3.627239929020464,17.035698379787032
101,N,0,22.29654403567447,0.9594407125079625,0.9522270377753761,0.7317731792285807,0.9083940420735392,0.9428790065785595,3.515366389489924,15.1682464715155
101,N,0,11.148272017837234,0.9728975007746747,0.9708099238677902,0.8546869741424995,0.5441455728952574,0.959178520512278,3.7061443063288615,17.86374214838934
101,N,0,22.29654403567447,0.8825768786350999,0.8623982769731944,0.7489477522871208,0.9057999665105905,0.8999746736019845,3.6554242804268275,17.038306976864018
101,N,0,22.29654403567447,0.9887198257350084,0.9844784243278056,0.831607093145862,0.7053717906463977,0.9289774457226072,3.4976761048016662,16.060430570265076
101,N,0,22.29654403567447,0.9858859740684547,0.9825290236770248,0.8155256921473039,0.7489163051043528,0.9328963358157254,3.4327778751867,15.233123237953182
101,N,0,22.29654403567447,0.9396998934494365,0.9299267605625509,0.7819613995312463,0.9449510590828735,0.9099270421828183,3.4124761800090093,14.794839081149235
101,N,0,22.29654403567447,0.95501973639147,0.9518141663543334,0.857002020439303,0.6816488024298775,0.9588919526929496,3.9208149429782853,19.152864666294523
101,N,0,22.29654403567447,0.9611190782463236,0.9532764775376571,0.8130636393760712,0.7219843616064698,0.9331940570939063,3.8654377473789787,19.548832411174278
101,N,0,22.29654403567447,0.9551990617565722,0.9497515000044676,0.7875096198683446,0.6509308208823344,0.9416862556862663,3.69360486705744,17.708516912089927
101,N,0,22.29654403567447,0.9496503159273207,0.9406461238506921,0.7295264275311916,0.974915024783346,0.9246212930648858,3.5248969841367908,15.340193139418878
101,N,0,22.29654403567447,0.9378698075320986,0.9321027437222353,0.7964564502813655,0.9058833275593181,0.9457787897262078,3.4983067733108903,15.055254418955176
101,N,0,22.29654403567447,0.9571488948887621,0.947905095681018,0.7536580860356852,0.6557969561551265,0.9168847258581675,3.471017689380219,16.392611074048308
101,N,0,11.148272017837234,0.987524628509255,0.987505125281721,0.8530639416218009,0.5572735685616101,0.9412807529235836,3.916668081557301,19.82474786071934
101,N,0,22.29654403567447,0.9776323766292595,0.9773220649337849,0.7569976912880333,0.6045439576452281,0.9117704148398903,3.463559971744944,16.167002700868046
101,N,0,22.29654403567447,0.8626977022037046,0.8535117592451068,0.8601556098297979,0.7716431978609537,0.9335026961466728,3.700282319953141,17.22876850174871
101,N,0,22.29654403567447,0.9683938673599487,0.9650866934835468,0.7608055701078525,0.833294397101524,0.9367750248770012,3.6110254284600836,15.989569506596531
101,N,0,22.29654403567447,0.9456317364392722,0.9343231890755769,0.7578238541041233,0.6810230907097796,0.9262423285057237,3.4575923452526016,16.001931290512335
101,N,0,22.29654403567447,0.9782926339164891,0.9747595338237625,0.7925610441595171,0.757753408342451,0.9351555895347331,3.3813709210089424,14.629171246160155
101,N,0,22.29654403567447,0.9277445355995884,0.9185531975561956,0.7639842869039859,0.8792226924049207,0.9164976078021886,3.4599681924838563,15.113700038863623
101,N,0,22.29654403567447,0.9781266120661407,0.9766061682494527,0.8106376562463439,0.7746796057145495,0.9416131793316704,3.650155814991971,16.41239496575808
101,N,0,22.29654403567447,0.9923335952184541,0.9885852187744882,0.8400730156555811,0.6892844971588586,0.914963110887745,3.5935665876378042,16.91183276979546
101,N,0,11.148272017837234,0.986400275591108,0.982823943307644,0.859639191139474,0.5409226569720262,0.9395886917971447,3.757912324206672,18.441594825628965
101,N,0,22.29654403567447,0.9350652566393731,0.926111964402709,0.8013171894958697,0.9115070842985286,0.9120488458641463,3.455842218207828,14.987604813733267
101,N,0,22.29654403567447,0.9461096541521978,0.9335388651527675,0.7792545584372088,0.7661010700555372,0.9154145233642937,3.68002969621379,17.84488799293494
101,N,0,22.29654403567447,0.9556862147576775,0.9510746314497864,0.8407395344469217,0.640534738293978,0.9583755976548504,3.777811729801975,18.05758699912924
101,N,0,22.29654403567447,0.9558328770373938,0.9503690361342652,0.7962299874818171,0.8889032908593282,0.9235053765797028,3.458432452007851,14.87279360045668
101,N,0,22.29654403567447,0.9549277079759205,0.9534135576687789,0.8260322381176936,0.6827841076734913,0.9595706867853214,3.9568970341344185,19.410968779344934
101,N,0,22.29654403567447,0.971952398419343,0.9678201743525879,0.7800189094946274,0.7981833612211195,0.9321342607515638,3.3571243992261945,14.373898953845211
101,N,0,22.29654403567447,0.988299005042783,0.984702261506854,0.8080937419102373,0.7247476424838585,0.925514567477925,3.3742399744276588,15.05560262681219
101,N,0,22.29654403567447,0.9066130420270715,0.8887436805628549,0.7914820674337106,0.8119524014646475,0.9459834166982038,3.63172916889126,16.69835932581537
101,N,0,11.148272017837234,0.9740705802757242,0.9686279771675748,0.7997494209120706,0.6815978045300428,0.9094540713384486,3.8730825385830863,20.26500165412296
101,N,0,22.29654403567447,0.8480118426048795,0.8255359947860308,0.8650693424573422,0.9287313219155554,0.9431104981386311,3.7266148437526643,16.58147360697901
101,N,0,11.148272017837234,0.9736810803889808,0.9729076700566368,0.7845841903183092,0.5882994009852989,0.9521759422333073,3.849886450190944,19.153230308518044
101,N,0,22.29654403567447,0.9164915064481246,0.9065640598470901,0.8300264725842296,0.9308045844520304,0.9253526798965231,3.6487958178545523,16.27038995247692
101,N,0,22.29654403567447,0.9909263474612348,0.9913324630246124,0.7955703471832362,0.6422165862780003,0.9430512637033696,3.757828177682665,18.208074870634455
101,N,0,22.29654403567447,0.9197684115416801,0.913017722260655,0.772378712917712,0.8314778390924678,0.940602618445709,3.38067067039189,14.468913457298433
101,N,0,22.29654403567447,0.9249129062498936,0.9091543289228892,0.8435138941248234,0.789145593356621,0.9221640904840647,3.646025172513097,17.28787389826091
101,N,0,22.29654403567447,0.9735588833057528,0.9706873193470771,0.8282724544075608,0.7576677582590784,0.9471154995581584,3.4478573406091053,14.944741686926024
101,N,0,22.29654403567447,0.9082206235569472,0.8954558619863084,0.813604680611925,0.883516210730614,0.9150847918565265,3.5167965943300836,15.722795294803614
101,N,0,11.148272017837234,0.9928894900828502,0.9914398232476151,0.802364465588652,0.5751194504853927,0.9293206030235595,3.7444137962121364,18.64696384111574
101,N,0,22.29654403567447,0.9814455349358069,0.9786807020178964,0.7743812930673835,0.5723416627907505,0.9429187669768564,3.5272032984956736,16.460790498843185
101,N,0,22.29654403567447,0.9711698707621446,0.96329982792339,0.8265988997654798,0.8824418892029057,0.9068639248072033,3.386425133315536,14.6834490125489
101,N,0,22.29654403567447,0.9407876078447124,0.933829894424642,0.8108888922673989,0.9410288187974774,0.9269952653446913,3.52528331061883,15.302347323093068
101,N,0,22.29654403567447,0.9689085291288079,0.9650456970751233,0.7423548482261809,0.5496701242089931,0.9247882353832105,3.481999842916364,16.44485462917873
101,N,0,22.29654403567447,0.9040759260460495,0.887215191068105,0.8267797620546302,0.8346152499327399,0.9364953866640398,3.6879570975297566,17.01594092855015
101,N,0,22.29654403567447,0.9660653892033635,0.9604785587489577,0.7513983162936463,0.8146721571379862,0.9084668548725457,3.299397086651014,14.175215163106689
101,N,0,22.29654403567447,0.9911747632601089,0.989648550008812,0.8399199731118991,0.6319941222714913,0.9340671862344727,3.6548542326074487,17.26390556740929
101,N,0,22.29654403567447,0.9352390378895133,0.9240857632756072,0.7847516429541073,0.9679134916596416,0.9110149581825036,3.5320550463635616,15.53120882209615
101,N,0,22.29654403567447,0.982983792471048,0.9798454314935144,0.8077818838876375,0.7183569372391502,0.9287405582627021,3.5336038600175175,16.16582492155731
101,N,0,22.29654403567447,0.8621044212562733,0.846839568769742,0.7731569329248446,0.7657195417900304,0.9316124292513658,3.5494929541825107,16.526127232853426
101,N,0,22.29654403567447,0.9852205030046141,0.9810025342385839,0.8448727345784736,0.7383069865648897,0.9288069403174354,3.441156472011328,15.366567727796639
101,N,0,22.29654403567447,0.9852389680829488,0.9854278033320555,0.7933686136526579,0.7274064997379212,0.9433799534496351,3.7561351033689108,17.564282377799458
101,N,0,11.148272017837234,0.9623821505734709,0.9599388152035893,0.8686459795199212,0.7095645222355231,0.9353529952685137,4.15412917008741,22.02926790000823
101,N,0,22.29654403567447,0.984272962056367,0.981916249889288,0.8276852740015495,0.6806730183758891,0.945885920327436,3.540528667390486,16.090429232220078
101,N,0,22.29654403567447,0.9170766267102315,0.9031281511923503,0.7881865523455354,0.7272079031536864,0.9440444690520625,3.503301888228071,15.884425417668961
101,N,0,22.29654403567447,0.9493856427153651,0.9404125430289229,0.8260538296089327,0.9656310004581667,0.9167894219025797,3.4558065725727225,14.888314449681268
101,N,0,22.29654403567447,0.9204855897924384,0.9063526254478956,0.8254384786840958,0.7389113012263915,0.951493080823859,3.571520376207037,16.319697757885415
101,N,0,22.29654403567447,0.9711512415521645,0.9674030712008556,0.8222237270316033,0.5701497565074614,0.9533443871986782,3.6304417399442115,17.16620228794656
101,N,0,22.29654403567447,0.9802795239704187,0.975644692545465,0.800025988305962,0.5877535002289203,0.9325723191272939,3.608962494409445,17.588353744761026
101,N,0,22.29654403567447,0.881112687288711,0.8736702530730053,0.7965588973124031,0.7205386876226554,0.9503320221977182,3.3007229118140584,14.125830642082049
101,N,0,22.29654403567447,0.9425139203847889,0.9313440960308126,0.8521936258430385,0.738721423941227,0.9386560973911169,3.759452288173834,18.17266408690352
101,N,0,22.29654403567447,0.9793445356262505,0.9779075741368836,0.8023433765656381,0.7715125839842771,0.9431657596083832,3.6088985648857963,16.11384540520443
101,N,0,22.29654403567447,0.9798803915196631,0.9776068448758716,0.77909083612826,0.6445308394489474,0.931225157434517,3.415955288311731,15.429645757760255
101,N,0,22.29654403567447,0.945836240437988,0.9360178349943333,0.7386566752716832,0.9538471530321305,0.9152348452917025,3.422242606346353,14.799013607193823
101,N,0,22.29654403567447,0.9185683754220659,0.907675067242076,0.8315244373548637,0.7257471738330548,0.9600317954294245,3.6144874509791562,16.61149604960319
101,N,0,22.29654403567447,0.9714410199885744,0.9667845516643904,0.7956508942370021,0.5558400476314607,0.9474233357920047,3.5522533163828047,16.65883149597184
101,N,0,22.29654403567447,0.9898069997442941,0.9874021418925846,0.7806734746886249,0.5820215960110277,0.9236013072565664,3.5027986810408644,16.658899652442894
101,N,0,22.29654403567447,0.9299006564256871,0.9183292586514261,0.7993362005376371,0.6994234575759827,0.9500138339840339,3.5260981774778806,16.132216342243638
101,N,0,22.29654403567447,0.9811686419941352,0.9780434655918095,0.8043431946022005,0.7671616028638226,0.9407434248279084,3.419100563016729,14.933049411905781
101,N,0,22.29654403567447,0.9500894350364919,0.9386987425794259,0.807459875120976,0.697470633619605,0.9280479398300306,3.567099087440643,16.778993091066262
101,N,0,22.29654403567447,0.8366597811551205,0.8097721542701299,0.8146763164564212,0.9144365550554239,0.9495994089854162,3.6595839517899815,16.05952107091643
101,N,0,22.29654403567447,0.9361187453158251,0.9241112660932495,0.8268875678832133,0.7862695294621482,0.9281191989909818,3.7978512587661837,18.48478719374896
101,N,0,22.29654403567447,0.9666805286825266,0.9639280688379408,0.7739282317349867,0.5865551519643672,0.9478664687533983,3.7250225786069215,18.009553795717533
101,N,0,33.4448160535117,0.9716799019684439,0.9691211245059665,0.8114150341302989,0.6032268178529602,0.9564125392049301,3.433732284483096,15.338522595592513
101,N,0,22.29654403567447,0.9392267792528786,0.9273565080681268,0.8235128301594399,0.7423903408104147,0.93789062276577,3.673168537804816,17.484213194413694
101,N,0,22.29654403567447,0.9812008812266935,0.9798188068758636,0.8193684814735048,0.7378640016527542,0.9471742097950502,3.5291902344081874,15.644481526762327
101,N,0,22.29654403567447,0.9846287329232066,0.9841491372396306,0.8961761979565084,0.6590025384621564,0.9442503750149269,3.7600176897611917,17.832016467440027
101,N,0,22.29654403567447,0.9928322496068198,0.9913197480245358,0.7447336602739316,0.651365653708078,0.9187143622654776,3.447596773201788,15.995177760187145
101,N,0,22.29654403567447,0.9364826843093006,0.9249980650070984,0.8234238684294978,0.7257169039637077,0.9465611755435348,3.6520506359887466,17.050998567755613
101,N,0,22.29654403567447,0.971897625441773,0.974111211113907,0.8461931975402547,0.788448239305139,0.9588666264135735,3.828339291685817,17.445488821903233
101,N,0,22.29654403567447,0.9411915435799675,0.9342495264873724,0.7894728635188203,0.9050444028434051,0.9359364771768237,3.382372429104824,14.376917233454543
101,N,0,22.29654403567447,0.9259319232880023,0.9149503698725806,0.8872812826039933,0.7348201238459657,0.9519189217155767,3.7376932579140947,17.438225635979965
101,N,0,22.29654403567447,0.9830200655264067,0.9778758957912607,0.8458391802330429,0.7692285006786455,0.9171573958105212,3.3862399664816194,14.95737845899754
101,N,0,22.29654403567447,0.9757343559332905,0.9704567302233392,0.8216112697393749,0.7245108773077709,0.9362022761606256,3.3296899897083247,14.332203575692178
101,N,0,22.29654403567447,0.9620539162674678,0.9550524421190185,0.7859143945572277,0.9264538175234456,0.9239796938068855,3.356281999207709,14.235322315286519
101,N,0,22.29654403567447,0.987445839412443,0.9846068502461334,0.7942301147525516,0.7516506267084493,0.9297094116300443,3.3858098173980684,14.996454671953948
101,N,0,22.29654403567447,0.9127434182249419,0.8932984595490697,0.7389058134646876,0.7568017128306468,0.9274847507381486,3.374657984879992,15.152201247311572
101,N,0,22.29654403567447,0.9607757206008162,0.9512810178508001,0.8001536444647116,0.6989814795716895,0.9110923630462426,3.6109117837416753,17.75149911628107
101,N,0,22.29654403567447,0.9756094803203137,0.9709601819012138,0.8306903763614503,0.5801054657804452,0.9444085120943104,3.645942870998633,17.67784866537437
101,N,0,22.29654403567447,0.9844876908716154,0.9801328840891518,0.7155467966383063,0.686582670086806,0.9289049822389496,3.353439243359116,15.241359804780396
101,N,0,22.29654403567447,0.9900264701735021,0.9879283109702581,0.7798122237454762,0.7180810289478822,0.9262651561157026,3.416725313792743,15.617138023531218
101,N,0,22.29654403567447,0.9585064480228586,0.9502334807726409,0.7668666242544585,0.6547718972428469,0.9393500764636116,3.5858038134721166,17.257036373981272
101,N,0,22.29654403567447,0.9596067365072275,0.9540227713616586,0.8461271630141519,0.5772630031006207,0.9534416011426997,3.4040112070118984,15.336802366265482
101,N,0,22.29654403567447,0.9895645876623476,0.9896134458472293,0.792085173652988,0.6616516528162449,0.9427418365463752,3.740944926228881,17.893186561943665
101,N,0,22.29654403567447,0.9877246030562135,0.984222414828994,0.8344193882689783,0.5841653152668126,0.9380375888965633,3.616002055492017,17.33620663635095
101,N,0,22.29654403567447,0.8843825262227795,0.8698217342466068,0.8327439684411877,0.8618102581012902,0.9135608035333744,3.5408089847983275,16.087649515331584
101,N,0,22.29654403567447,0.9425192188292448,0.9356752522288905,0.7806896670342994,0.9398635047814211,0.9442408109038836,3.4648803321280304,14.802580817543385
101,N,0,11.148272017837234,0.9898642369432621,0.9878948162413732,0.7626522004412002,0.5764222111882986,0.9238950169375825,3.7269510224525755,18.74044903802771
101,N,0,22.29654403567447,0.985722942150416,0.9832552290408132,0.7933763180940598,0.5644671250575969,0.9333336550024888,3.5886854484613195,17.113329998557603
101,N,0,22.29654403567447,0.9254773903806204,0.9121568334971052,0.8270181162356487,0.7035348383691338,0.9446250924226011,3.4860218479160907,15.825588638726476
101,N,0,22.29654403567447,0.952625210644952,0.9410806320622596,0.783941353133579,0.7266119218073055,0.9184273473101193,3.597793967342419,17.40470963524266
101,N,0,22.29654403567447,0.8817801867108197,0.8677190286134646,0.8438152638627991,0.8465703460666171,0.9629161719407346,3.7995826476190127,17.266835259623345
101,N,0,22.29654403567447,0.9572913329133674,0.949347636942201,0.8513292638005376,0.9258410887892676,0.9141917704047028,3.503652088999404,15.220768478504922
101,N,0,22.29654403567447,0.9296151767303178,0.9187821344856828,0.8518034697016742,0.7927800248122155,0.9402554723031297,3.8922570572420656,18.8763377759766
101,N,0,22.29654403567447,0.9109774232646317,0.9015980521608059,0.8644204116416445,0.7730303739040707,0.9492504639410776,3.7560847933369166,17.468725063364527
101,N,0,22.29654403567447,0.9601313828774524,0.9512062405217447,0.7957080852719214,0.9627399904960465,0.9146717032980528,3.3347725258269256,14.163484640430918
101,N,0,22.29654403567447,0.965095106908737,0.9578184811048219,0.7740182140794312,0.6315382194202773,0.9304019171481673,3.5683899473222223,17.101405234061737
101,N,0,22.29654403567447,0.9469546334320619,0.9372875945932159,0.8251399813217736,0.7100409435214022,0.9423480104937964,3.7051042994846597,17.835300014613793
