record,cls,y,qrs_width_norm,template_corr,template_corr_abs,pos_neg_ratio,slope_norm,energy_conc,seg_skew,seg_kurt
800,N,0,22.29654403567447,0.8862185024182206,0.8878059018795077,0.6648398495748742,0.6121985964331405,0.8591620071280885,2.687132735133596,11.657607399906468
800,N,0,22.29654403567447,0.9956336047443786,0.9958374692217589,0.6543922414190285,0.6435539785771682,0.8436061046748399,2.683279976449292,11.8024953483501
800,N,0,33.4448160535117,0.9117036555713683,0.8952571370141167,0.6712213625243775,0.6407207347380471,0.8533119263532835,2.696999999173172,11.820722468343726
800,N,0,33.4448160535117,0.9747607102781125,0.9690573878886336,0.6572281192499657,0.6741268576360878,0.8449427781826074,2.805167165842629,12.585878432291935
800,N,0,33.4448160535117,0.9885574002933681,0.9860082742061738,0.6601066608123776,0.6628645322254157,0.8334682304014875,2.616698688180738,11.628720760100068
800,N,0,22.29654403567447,0.9927781161662775,0.9901028151704764,0.6974888779601718,0.569413623823419,0.8663495733885717,2.684945702343848,11.304623668827825
800,N,0,22.29654403567447,0.9914361572926248,0.9892719834773382,0.6399468146641218,0.6308781391919256,0.8405931687654971,2.6297928952334675,11.351391309227143
800,N,0,22.29654403567447,0.8762935524714561,0.8939102182419599,0.6157849823387577,0.6686051755401576,0.8202853805362105,2.464637722302014,11.36028833171282
800,N,0,22.29654403567447,0.9800740162022868,0.9738872401594117,0.5852306061954332,0.8342490502147031,0.7175424774094117,2.0176710134741964,10.262427581719948
800,N,0,33.4448160535117,0.925462048972688,0.9396633544737796,0.6365537936697906,0.6925798933765015,0.8184238596320559,2.493007900547518,11.363708026108775
800,N,0,22.29654403567447,0.9576556260463052,0.9475281879476412,0.6115159565451324,0.6050989476565001,0.7854765229056416,2.426712727320197,11.48972606601265
800,N,0,33.4448160535117,0.9736767018463337,0.9636414995620589,0.5630640513560623,0.7172061501703458,0.7310735599615735,2.0549051476007656,10.23801892784817
800,N,0,22.29654403567447,0.9698630612472403,0.9695706955470215,0.6087233741647639,0.7267208151963689,0.7433571358903162,2.1581558167260164,10.888277169296527
800,S,0,22.29654403567447,0.9865814202688487,0.9844207748108086,0.6334373016956736,0.6929046460123686,0.7938868745999904,2.459356283577003,11.571289212445128
800,N,0,22.29654403567447,0.8757729546196152,0.8919472212012156,0.6540527431519328,0.6474965361689142,0.8354448714343417,2.5599880242775677,11.75987182408807
800,N,0,33.4448160535117,0.9510060760709944,0.9506663583783678,0.6078578953853628,0.6889753487583469,0.7823054599067156,2.3288505525002923,10.915429854935256
800,N,0,22.29654403567447,0.9973239296542104,0.9960146517141941,0.6225000301303022,0.7013812921611914,0.838881468710131,2.7895622900619417,12.382421360634595
800,N,0,33.4448160535117,0.9443722758059172,0.9585031277171762,0.678408721622286,0.6898039732317441,0.8220748814835583,2.6693586949401755,12.218289239443141
800,N,0,22.29654403567447,0.7997583769273003,0.8298864687352362,0.6132009160193982,0.7155958733477885,0.8134426039893768,2.412504115305542,12.026435900970478
800,N,0,22.29654403567447,0.9876893577922391,0.9883348789687751,0.6700747173577101,0.7106025599763903,0.8355727091862072,2.729376003776757,12.090950590465843
800,N,0,22.29654403567447,0.9611502980989716,0.9518862026098974,0.6517215104778621,0.612022091780269,0.8578130865473078,2.8975577296934465,12.86501552230464
800,N,0,22.29654403567447,0.9895373584163266,0.9873388399011104,0.652848041605995,0.6787034784455506,0.8364196517275584,2.716697209920938,12.163231732337623
800,N,0,22.29654403567447,0.9905140198162498,0.9882905920037379,0.6568252077476375,0.6848895317943147,0.8247207171486508,2.4543614616308944,10.901378787378178
800,N,0,33.4448160535117,0.981604960183916,0.9774137219712008,0.639379674986909,0.6409825375601785,0.8153566404175779,2.542399962508835,11.512866395363401
800,N,0,33.4448160535117,0.9868255813345351,0.9836442629363314,0.6798830100455989,0.7247126955705946,0.8251141665413951,2.5786471051046975,11.410360674559179
800,N,0,33.4448160535117,0.8613489889312468,0.845579270483983,0.6328061577693167,0.612370280924095,0.7803673472822542,2.256228735541426,10.770010103574428
800,N,0,33.4448160535117,0.9507815603970208,0.9504919071252563,0.6646851712168564,0.6765507780868849,0.8144392993042988,2.4501365123286782,11.152135531368096
800,N,0,33.4448160535117,0.9676809220447216,0.9652075540035144,0.6017274383056773,0.7121916612911781,0.7480206050460093,2.133695279149438,10.643134861176478
800,N,0,22.29654403567447,0.9827289428981388,0.9792901189890524,0.6634973157311947,0.6236178431994861,0.8543458268568748,2.7009931493324078,11.553654960769066
800,N,0,33.4448160535117,0.917528738058701,0.9294879419470091,0.5819382438181582,0.687822514832021,0.7690152772100965,2.277690415022651,10.227096615049275
800,N,0,33.4448160535117,0.9768439708908537,0.9713113761246761,0.6566001850344128,0.6697366143442225,0.8362432097402018,2.4618986141632506,10.435797955793333
800,N,0,33.4448160535117,0.9767797190023577,0.9711203149041012,0.6447928907792156,0.6822243661811642,0.8311288534009285,2.4431298920090927,10.404462706885601
800,N,0,33.4448160535117,0.9386955278422191,0.9408865061266772,0.6506081150524997,0.620026722459883,0.8178707055554056,2.602139678105814,11.87470854953544
800,N,0,22.29654403567447,0.9897375418870219,0.9884825748802465,0.6486920988094763,0.6748913929070881,0.8047796885569175,2.514609149176566,11.233158987729421
800,N,0,22.29654403567447,0.9948659949174498,0.9929783753069382,0.6951910801414641,0.6357404409850884,0.8428948439318165,2.626163946430502,11.489297998896857
800,N,0,33.4448160535117,0.9238678021477406,0.9032301222721484,0.6078006925076659,0.6619433342730765,0.8023465667049211,2.488298692167672,11.31953373729697
800,N,0,33.4448160535117,0.9707702658109133,0.9638719356265026,0.690605835988191,0.6293032623347926,0.8281152854426319,2.5268616690819026,10.785284735031242
800,N,0,33.4448160535117,0.9474135628000623,0.9343069412110991,0.6309836437854971,0.6006498334567703,0.8018391592220776,2.350552811910141,10.443353713863921
800,N,0,22.29654403567447,0.9845096178680848,0.9816580738791949,0.6487828600318395,0.6587052326891762,0.7610502589969778,2.0762002655321847,9.875494277863336
800,N,0,33.4448160535117,0.90720677765491,0.8857906400980768,0.6155342526316573,0.6578086918684343,0.8257061272485823,2.5710389597847088,11.270328635114971
800,N,0,33.4448160535117,0.8747085755943615,0.8505972343188346,0.6024009060281967,0.6163281372632178,0.7939230961913004,2.4276398153306937,11.166238992548017
800,N,0,33.4448160535117,0.9378104427106988,0.951976257345588,0.6117363708864189,0.7219218272702352,0.7521577285117779,2.101251474418089,10.337996904941757
800,N,0,22.29654403567447,0.9618865488880801,0.9527358802112975,0.6641153694748659,0.6118595462395814,0.819960211894273,2.53912640188906,11.33119634442793
800,N,0,33.4448160535117,0.9901088172211334,0.9878549730890708,0.6521181194433687,0.5700627608394184,0.8153099605921229,2.362869184997735,10.44118770530253
800,N,0,33.4448160535117,0.8610548607624651,0.8471933240282471,0.5929918413981787,0.6340591941648053,0.827144187587634,2.6611736733433107,11.608533437529331
800,N,0,33.4448160535117,0.9187908230830478,0.9011441991558141,0.6716699369399587,0.6093030264562505,0.8118344794833258,2.403520748895262,10.708189704324857
800,N,0,33.4448160535117,0.965264402383303,0.9577590976386017,0.6320273555216995,0.6240977504714327,0.7567058442600111,2.092752948380101,10.037010544487316
800,N,0,22.29654403567447,0.9893568526771317,0.986875628257192,0.6598464352080574,0.6145935244414211,0.8255519093336995,2.488872959549604,11.02761998206756
800,N,0,22.29654403567447,0.9590353145989384,0.9482840126063657,0.6185909789557217,0.6140269424726342,0.806532713752125,2.47325500628948,11.194002822326409
800,N,0,33.4448160535117,0.9017257779420832,0.8865003996939269,0.6802288905024441,0.5960553623899855,0.8295964682343602,2.532020337427074,11.159870214766425
800,N,0,33.4448160535117,0.9760835032491079,0.969753885498606,0.6827355862227146,0.5901278059047653,0.8291940045113305,2.4205710390389292,10.34182051090537
800,N,0,33.4448160535117,0.9490017086020294,0.9483910878720395,0.6746779670704744,0.6496020245344876,0.8344926045316684,2.631277804158261,11.765490935983284
800,N,0,22.29654403567447,0.9864698346960228,0.9836632465059469,0.6520751526673108,0.6645225707394173,0.7875417852462794,2.35018258179766,10.928220568131328
800,N,0,22.29654403567447,0.9871542601023257,0.9858661347368308,0.6545475322916905,0.6597705760024638,0.7900913018016449,2.366662173308554,10.624113385792489
800,N,0,33.4448160535117,0.9442627686204529,0.939409303928337,0.6625069436094945,0.635901342068837,0.7950350631616347,2.3069867735616514,10.6102493125215
800,N,0,33.4448160535117,0.945715933002971,0.9324571608607489,0.6773736733096806,0.60390605207599,0.8328354638490616,2.5307979966650422,10.98029967649463
800,N,0,33.4448160535117,0.8739818978017743,0.8841310240062703,0.6993651324618498,0.5480469455422787,0.8219820053539275,2.429032303021318,10.776452287264936
800,N,0,33.4448160535117,0.9331650542172975,0.9272821302391508,0.6737314647146215,0.6241051512697859,0.8527343160876965,2.6694479877728616,11.563502242059212
800,N,0,33.4448160535117,0.9615981662265666,0.9542606196538305,0.6747510651682994,0.6474098772445531,0.8594544130647823,2.681394098402708,11.465789672901177
800,N,0,33.4448160535117,0.9581276613101338,0.9556362124829216,0.7006630097979839,0.6727456097583395,0.8488037492717041,2.6977220024781148,12.022100547519262
800,N,0,33.4448160535117,0.9886849551994193,0.9862231850501169,0.6761578577785637,0.602675560072745,0.854671294385296,2.7116951062255876,11.811138904422231
800,N,0,33.4448160535117,0.9915338259211685,0.9891780853531964,0.6858809830038537,0.6450237187868044,0.8652892256084156,2.794607230246128,12.000029652763999
800,N,0,33.4448160535117,0.9693402159788153,0.9615594127643309,0.680863667002165,0.6740500246073934,0.8354476326319019,2.567348458451523,11.31328486783057
800,N,0,33.4448160535117,0.9538689945016477,0.9439845532645057,0.656175812733398,0.6242318174284255,0.8334057517344047,2.5810135812569146,11.397548834908664
800,N,0,22.29654403567447,0.9920733323296189,0.9903334920209471,0.6435770616033539,0.6151429856854308,0.8426237422908063,2.5735781936557736,10.976966379321057
800,N,0,22.29654403567447,0.9584138571345674,0.9504380782191146,0.6680447261111563,0.6015681285380112,0.8495413677540913,2.6654219834190305,11.60256175110484
800,N,0,22.29654403567447,0.9984334358396795,0.9979634404366299,0.6434365181047826,0.6611497663052738,0.8151442179817621,2.5533891238053212,11.616691133641657
800,N,0,33.4448160535117,0.8910399217910843,0.8877610252024397,0.6876801636823012,0.5648626698020551,0.8566969124898621,2.70940097514776,11.703785962750446
800,N,0,22.29654403567447,0.9967723245349096,0.9959862506150217,0.6435108061763762,0.6459580156475707,0.8128723609964318,2.534269188680954,11.543338638269779
800,N,0,33.4448160535117,0.9128673356011344,0.8976644344638056,0.6693583436357136,0.6088279313427059,0.8620563695613979,2.7029349580700526,11.46371487052972
800,N,0,22.29654403567447,0.9969810653798136,0.996339041190739,0.6433918311671475,0.6373310806168844,0.8284571616056776,2.6100381170055638,11.521238447658071
800,N,0,33.4448160535117,0.9685758164418347,0.961182960582375,0.6739395231416215,0.6345253443408722,0.8644424087191813,2.6366413515878326,11.064066211510799
800,N,0,22.29654403567447,0.993072668117108,0.9914356297579529,0.6800389319621892,0.6293814971375311,0.8558707774376975,2.7224718439423423,11.755286345240298
800,N,0,33.4448160535117,0.8887450951772875,0.8614765742820691,0.6514923968461175,0.6470369617851313,0.8206652880938381,2.5923843378197526,12.05133887587896
800,N,0,33.4448160535117,0.9195505260240001,0.9003530251643614,0.6608532477676416,0.6691557650854437,0.8180302010168206,2.447874401513629,11.156295637854042
800,N,0,33.4448160535117,0.9526577790391197,0.9412533002837481,0.646715216678782,0.6249641424623514,0.842963966544747,2.6667914248797553,11.785658148658518
800,N,0,33.4448160535117,0.9045126488551647,0.8841363022283731,0.6630142083415113,0.6447681455064261,0.848411091178639,2.620173586873779,11.3454406639527
800,N,0,22.29654403567447,0.7799931561102231,0.7948933770230802,0.6489631967478765,0.7052743796213612,0.8409064018224114,2.5166778521625637,11.426930772942445
800,N,0,22.29654403567447,0.8479136432863005,0.8623277698514665,0.5897166131946897,0.6811000017616117,0.7650736341700903,2.054082963269686,9.597892223432208
800,N,0,33.4448160535117,0.948866924357516,0.9551764098602837,0.6152949596069307,0.7004027794613232,0.7701540911313406,2.297545924560812,10.854938776542017
800,N,0,33.4448160535117,0.9316195970094429,0.9461947927900554,0.5965548953092116,0.6750899340632345,0.8213748640557655,2.6650183231932916,12.342754138956405
800,N,0,22.29654403567447,0.9907999101189199,0.9885642037147965,0.6461221839305296,0.6789298574089542,0.8510241079727022,2.8362788651920567,12.474359536094394
800,N,0,22.29654403567447,0.9767191536314631,0.9707619863599164,0.6326416715688716,0.6093192807880462,0.8398616571479672,2.7620622625371714,12.150417568735916
800,N,0,22.29654403567447,0.989582654277234,0.986909017744856,0.6724292153177563,0.6855587625772763,0.8566162597583156,2.856701594632763,12.56560051404712
800,N,0,22.29654403567447,0.9076558378020285,0.9188288541351124,0.6642773330231082,0.6279248465757075,0.8072606888040021,2.432681874853158,11.409351868468052
800,N,0,22.29654403567447,0.9533972701109825,0.9398627592881171,0.5886569871393169,0.64846800199449,0.7814576820140396,2.300218145811267,10.651616729598702
800,N,0,33.4448160535117,0.9284411662029727,0.912986315323648,0.673770482739555,0.6187037805383883,0.8253556551535821,2.557644887818667,11.424384993369268
800,N,0,22.29654403567447,0.9898506343394887,0.9885479617679098,0.6344066424802575,0.6993405158355598,0.7938318681709128,2.4523150430025464,11.34957233700879
800,N,0,33.4448160535117,0.9762596196362697,0.968609991563273,0.5976536476002738,0.7056602403417715,0.7894145432215832,2.413590949898134,11.085253225552071
800,N,0,22.29654403567447,0.8197953641386739,0.841831725054321,0.6113959356559177,0.6926457769567389,0.8344164657887576,2.453148931137157,10.98414356910511
800,N,0,22.29654403567447,0.9409309574975487,0.9258680035811229,0.6292785600324767,0.6645395009302517,0.7997289452896131,2.4772240992533696,11.553286232054939
800,N,0,22.29654403567447,0.9843398530503231,0.9780905426127224,0.5767044624804223,0.6738012884489499,0.781025930192711,2.458941636528967,11.438460328653688
800,N,0,33.4448160535117,0.9877106544805926,0.9855177522182526,0.6692586515544473,0.6648665536416782,0.8305807851044762,2.6179211619782294,11.60174421008401
800,N,0,22.29654403567447,0.9894028651772043,0.9849851216786697,0.5875660600808023,0.7193130680106905,0.7130488944239806,1.9036540886882887,9.84120774769746
800,N,0,33.4448160535117,0.8397973073685674,0.8398477287854033,0.5879405749936323,0.5714462384143844,0.7517500949959394,2.110763623582701,9.696674687537092
800,N,0,33.4448160535117,0.9612876364198282,0.948616741248277,0.5655795467097776,0.6888290725097088,0.7206740873079017,1.8515617439253966,9.454308269210497
800,N,0,22.29654403567447,0.9817115046651821,0.9793425732967693,0.6122792923913497,0.6552839363034731,0.7844657683441567,2.40573709203571,10.91604682352073
800,N,0,22.29654403567447,0.8919635781835473,0.9037521582009185,0.6599495133133918,0.6221924702805322,0.6972943359974941,1.9633292714383932,8.408301685825803
800,N,0,33.4448160535117,0.9492101752559293,0.9370469949223782,0.6365890511781441,0.6115094260564808,0.7744919376031697,2.1200029155627855,9.8005210853551
800,N,0,22.29654403567447,-0.2614971527278084,0.0633839416774733,0.6756538546367861,0.6563144550046219,0.8771285360645146,1.9304641230868105,8.150859033129773
800,N,0,22.29654403567447,-0.3482750092035452,0.22777515702948573,0.6435998513892935,0.6574967261740632,0.8454140222067092,1.531324342618615,7.424338400588677
800,N,0,33.4448160535117,0.973149713440469,0.9702390413230405,0.5940574163264307,0.7048174030650108,0.7883827582175229,2.4748474037065478,11.562527033118883
800,N,0,33.4448160535117,0.8821917739423049,0.8479450364877228,0.5729043114529904,0.7486147736768439,0.7088896692088242,1.9028251035570056,10.017078897869693
800,N,0,33.4448160535117,0.8891718377474216,0.8620017238657355,0.6512891585853394,0.6138106341052946,0.7988433947894321,2.4650388469712246,11.50878372647715
800,N,0,22.29654403567447,0.784993542132867,0.7831139326026657,0.6022282620918367,0.6072509773656565,0.6981120464730215,1.7958625281691938,9.11457536132661
800,N,0,22.29654403567447,0.9872951530170402,0.9871501188012757,0.6316368482761295,0.8256399389340012,0.7567130052444545,2.216402254117339,10.293976861733526
800,N,0,22.29654403567447,0.9655043860772308,0.9580116094206069,0.6052315595685795,0.6463586960806091,0.6748118990997728,1.5764822099749227,9.006367883573132
800,N,0,33.4448160535117,0.8781786322766474,0.8464731808784639,0.6196547091166756,0.6503558253160568,0.7974100715194579,2.437049273243284,11.077999849096203
800,N,0,33.4448160535117,0.9348404927198818,0.9168950718146139,0.5949636537784658,0.6888234270618285,0.769528984213407,2.2537246259487853,10.761894814328711
800,N,0,22.29654403567447,0.9744622828347876,0.9687538701261033,0.6755327538952544,0.6125148173477839,0.7870119629706398,2.296739092087395,10.06928961888135
800,N,0,22.29654403567447,0.991219731376406,0.9906081606884253,0.5985148745536067,0.5935201773176143,0.799096126149208,2.361278401426015,10.210364394692753
800,N,0,22.29654403567447,0.9771949055218364,0.968659407304424,0.5628417549141146,0.6964074224515742,0.6765035902051232,1.689552485912961,9.120103799721631
800,N,0,22.29654403567447,0.9686609062465785,0.9654506995158413,0.6379986016537652,0.6354455903413376,0.7268206848639189,2.053051062398228,9.48355796053934
800,N,0,22.29654403567447,0.9865841978791458,0.9839389051748475,0.6304094992268484,0.6668178305623418,0.7773647433568693,2.2899534561430728,10.375228476455193
800,N,0,33.4448160535117,0.8752253321287784,0.8494478430521956,0.5844459538423581,0.6008675855347739,0.7781415089952871,2.3729934762028195,10.94272099300451
800,N,0,22.29654403567447,0.9879893866373373,0.9870730727461309,0.5836238423519545,0.6735453431282796,0.7287657109944745,2.0686768778318574,9.841089040474149
800,N,0,33.4448160535117,0.9538769706894582,0.9525321622934961,0.5303870590690485,0.7244852893316539,0.6862191502555984,1.9087869057911107,9.458664592836016
800,N,0,22.29654403567447,0.8921825154416443,0.8984846978677151,0.6610572573974508,0.6243187010286115,0.728634377770535,2.010607168807446,9.365069494817629
800,N,0,33.4448160535117,0.9810198603811148,0.978571097932105,0.6025657892942424,0.5956905388180297,0.7360423703828105,2.004143589888088,9.344511337194806
800,N,0,22.29654403567447,0.9560948107839097,0.9458784668270338,0.6623827341367878,0.6217827303729362,0.7580197996324047,2.0800802136935634,9.538196319287096
800,N,0,22.29654403567447,0.9554801634902459,0.9464547711558889,0.675024862753485,0.6683493960454611,0.730717971387757,1.8459459481483964,8.379853312215069
800,N,0,33.4448160535117,0.9552234926820483,0.9546972380386762,0.6462448371773483,0.6200880899085023,0.6990943919271368,1.7032263489871022,8.137833876243363
800,N,0,22.29654403567447,0.9722396019161134,0.9668445438014754,0.5574950051163495,0.7574286402333197,0.6673248320691391,1.7546399917681532,9.26073011943029
800,N,0,22.29654403567447,0.9185804329261341,0.89866541457861,0.5638688329261661,0.7511469656166657,0.6251229459511941,1.4453006206416712,8.301733628132123
800,N,0,22.29654403567447,0.8708208031844226,0.8875930744196266,0.6245511574085838,0.6307730095064895,0.761818031440914,2.1855005127648313,10.096906726020084
800,N,0,22.29654403567447,0.9564230873628963,0.9532608935342525,0.6523329952274025,0.661820647381937,0.6638323996640559,1.5580179357394426,7.804374233982318
800,N,0,22.29654403567447,0.9750029783790133,0.9698020633218367,0.5714015596560655,0.6999105934684413,0.681287320306814,1.7121694597822086,8.925392611061408
800,N,0,22.29654403567447,0.9634864650684422,0.9621662400243046,0.6009649406160831,0.6767115311397413,0.6520027435526765,1.6560280562829206,8.24363050487231
800,N,0,22.29654403567447,0.9377280200300808,0.9307887169011586,0.5844928014742744,0.6583273965140601,0.6378106031249581,1.5574005305096315,8.091002665340193
800,N,0,22.29654403567447,0.8549175019609838,0.8682750073606157,0.605983170427306,0.6513839343967165,0.7280970408372652,1.8555889105069185,9.24578622080198
800,N,0,33.4448160535117,0.9249767635298553,0.9196336343769994,0.6274946010375873,0.6391204237671257,0.7086611853666858,1.9084471310767113,8.699211347828001
800,N,0,22.29654403567447,0.9794866607624081,0.9764028972436796,0.613495736467494,0.6645426015922082,0.7432602631922218,2.003120629238256,9.434430766112735
800,N,0,33.4448160535117,0.9040801980625525,0.9220401320511917,0.5970882983723141,0.68394842317968,0.6922858742381912,1.6872509024911277,8.997969841533516
800,N,0,33.4448160535117,0.9262106762500985,0.937682554810991,0.5772140376739031,0.7592167101686245,0.6188470266385863,1.2367885963005818,8.157280812837335
800,N,0,33.4448160535117,0.8853435507974224,0.8969467902553391,0.6827225243373053,0.6942301128921939,0.7187314967285381,1.771033281884958,8.421806352306755
800,N,0,22.29654403567447,0.8468053639886363,0.844951643867791,0.6404429872197239,0.6467559322756621,0.7149198919353373,1.7710287947830996,8.10900878231337
800,N,0,22.29654403567447,0.7221853967620983,0.7157545272887191,0.6348768671470307,0.6468789363936895,0.7186993618386704,1.765101070049793,8.167002894844668
800,N,0,33.4448160535117,0.9189370182990708,0.9354014401483668,0.5828114889226529,0.705604279160462,0.6880475490864372,1.6881688982153586,9.096912819844706
800,N,0,33.4448160535117,0.8948338786713764,0.8680562392962126,0.5873721041873879,0.7060887489285494,0.6902176907011457,1.8443879697864631,9.336595354137915
800,N,0,33.4448160535117,0.9236217418138426,0.905860875041958,0.6245634080109904,0.6491427463480769,0.7546037595936799,2.1107233827920138,9.78612530891028
800,N,0,22.29654403567447,0.9868647064860652,0.9803379523878301,0.5471815971839648,0.7161766830947652,0.6786580358717131,1.7774542655163204,9.203472422019274
800,N,0,22.29654403567447,0.9860049890300819,0.9844003796961416,0.591704825554265,0.6551831927765661,0.7464040866039826,2.216732203077775,10.17713960797614
800,N,0,33.4448160535117,0.9661482680848347,0.9637785039766045,0.6415837701169954,0.608952203635051,0.6987985315053175,1.7410703074919178,8.207641665544033
800,N,0,22.29654403567447,0.9530253888914383,0.9461147888532758,0.6132240985663548,0.7447442114810309,0.6355361012483839,1.5252581678185593,8.241609017133399
800,N,0,33.4448160535117,0.9315630320427067,0.9249271152738526,0.637131381863449,0.6549116214471347,0.6743332945654873,1.7030379966561586,8.117732025802212
800,N,0,22.29654403567447,0.9789295245890843,0.9744460474636344,0.5763277435142159,0.6573872381922525,0.7528438567635574,2.1978925286949544,9.799697815739156
800,N,0,33.4448160535117,0.9513418385592203,0.943374660000336,0.6150824096229582,0.61376272402193,0.6948137145831843,1.7580505026712925,8.19969781762251
800,V,1,22.29654403567447,0.5775758358077306,0.4540533927086906,0.5086401027326086,0.7448735057071397,0.19651621927321175,-0.8283844246816388,4.814528841316003
800,N,0,33.4448160535117,0.9166695002950973,0.9269385481258804,0.6179412921957292,0.6858458678433534,0.6915476089765001,1.7471836408462977,8.600981042481274
800,N,0,33.4448160535117,0.8538608095365646,0.821818956342116,0.6560934731097834,0.6703177850771381,0.772160975321448,2.287108452746563,10.099008806487266
800,N,0,22.29654403567447,0.9737993678219512,0.9667814374870837,0.566028082211294,0.7012423950069498,0.6882678437696467,1.8570590948518062,9.290447693355702
800,N,0,33.4448160535117,0.851278939214333,0.805648139654621,0.5287145063409322,0.6738208806738298,0.7187434376446303,2.0993597445878693,9.798266959234988
800,N,0,22.29654403567447,0.9735224233554982,0.9714678917307343,0.6034401362690907,0.6919355628866952,0.6831310362436273,1.748028739510708,8.799525616300517
800,N,0,22.29654403567447,0.965079020353533,0.9644418560174911,0.632902400964746,0.6047290107783447,0.6799047138140296,1.7334018251400045,8.050497560452024
800,N,0,22.29654403567447,0.981579678569478,0.9835516542834665,0.6014935108113538,0.6256337521334626,0.7143551242291167,1.8894992307883998,8.866850808540613
800,N,0,22.29654403567447,0.808530765947676,0.8361656741461383,0.5918352979368522,0.7570208676420009,0.6131321976835064,1.161135389265583,6.963944244413095
800,N,0,33.4448160535117,0.8774945638073212,0.8649970084668043,0.5986986639315921,0.571779928647549,0.7276343847798199,1.938922629939354,9.285232049086911
800,N,0,22.29654403567447,0.9859402470216656,0.986057560143271,0.598283615549218,0.7198890630045326,0.7106007158150901,1.9908421043755082,9.64409605194157
800,N,0,22.29654403567447,0.9652824307460057,0.9636378953585443,0.5661245532760603,0.7981305246284385,0.6807452465920277,1.944698436916565,9.30684505998432
800,N,0,22.29654403567447,0.896506426211095,0.8950412501325108,0.6432545066936335,0.5874151485614338,0.7354673234048127,1.9336763920941975,9.322346255897187
800,N,0,22.29654403567447,0.9827433654553022,0.9853622020093361,0.6101097948046571,0.6408927852284685,0.7085004468282432,1.8090604031912172,8.820432016700352
800,N,0,33.4448160535117,0.905332255666047,0.8868508743464913,0.6456073012343408,0.620129710777219,0.743601004774673,1.9276037203727965,8.54991425144457
800,N,0,33.4448160535117,0.9532724448053489,0.9447711757873958,0.6297782629037352,0.6332518316779309,0.761229927455849,2.1562933438267247,9.6733040078903
800,N,0,22.29654403567447,0.9845684836352151,0.9877887481232155,0.6041360972273914,0.6306899887429257,0.710351039232276,1.8463645898827261,8.983308575474558
800,N,0,22.29654403567447,0.9715865965387053,0.9704067717780623,0.6063249230144205,0.668011366849538,0.6980974832074088,1.831797831614296,8.62500410344969
800,N,0,22.29654403567447,0.8412930629736304,0.852211698686292,0.5950499072753201,0.6731795802074816,0.7100774033225895,1.6883081930825032,8.47567452462428
800,N,0,33.4448160535117,0.9291769502784877,0.9140558141535324,0.5964431490337696,0.6551906975845997,0.6956216914963085,1.7939166339364705,8.63528648942949
800,N,0,33.4448160535117,0.9085045070854113,0.9011146215313007,0.6392164990560955,0.5857353583967084,0.727206870914584,1.8857793265684124,8.96686092599843
800,N,0,22.29654403567447,0.860139704861915,0.8785783859123082,0.6292629097084195,0.6761883014020277,0.7440280647599365,1.9704579338788095,9.183672287374378
800,N,0,22.29654403567447,0.9842807496378189,0.9850496079776078,0.6280472059016128,0.6239644743082825,0.7436022234900019,2.009055096727347,8.88785923764454
800,N,0,33.4448160535117,0.915828652563044,0.9237891765460652,0.6533844795964359,0.6463309797924753,0.7255936735633214,1.9132734166378693,9.399369674998988
800,N,0,33.4448160535117,0.9156235550437928,0.9226352469850837,0.6563265411609247,0.6330700699504888,0.7466146791130229,2.0699504024514677,9.798457899679773
800,N,0,22.29654403567447,0.9701030575871185,0.9682781784021394,0.6071370926823435,0.7131352607680896,0.6658095216725834,1.6939716718094362,8.24214501018196
800,N,0,22.29654403567447,0.9763355816407783,0.9749052577569144,0.5748768645909,0.6772087170126722,0.7167091508564016,2.0440014555736967,9.476322163380733
800,N,0,33.4448160535117,0.9199231372113296,0.9002316834000832,0.6118596519409382,0.688357649561402,0.6930907832075857,1.72171425533699,8.638657680586643
800,N,0,33.4448160535117,0.9497709610584113,0.939691395405502,0.6578184843305552,0.6465527436524043,0.739633058530155,1.951679391579555,9.095232438758428
800,N,0,33.4448160535117,0.833650618750988,0.798659585919959,0.5480075791429975,0.653388248233177,0.7186336148674257,2.0645928629021855,9.98516984491188
800,N,0,22.29654403567447,0.9858804737047772,0.9840295873261903,0.6039325970836387,0.6471560339100154,0.7075824375936325,1.8757686369161153,9.229569784471662
800,N,0,22.29654403567447,0.9733057783027849,0.9664897026911797,0.6050451902555484,0.6480594012706004,0.7395998079247245,2.027978670144618,9.888122299758294
800,N,0,22.29654403567447,0.9446709836977625,0.9328589135991875,0.6144642741333486,0.6636773791584084,0.7345001596586505,2.095425929418834,9.713072035325746
800,N,0,22.29654403567447,0.779908700010105,0.7985588317226117,0.5769531973085377,0.7456732710552791,0.6772958186823336,1.4303373477212624,8.461511963848972
800,N,0,33.4448160535117,0.9659350560624423,0.9587307612604651,0.6065164244711564,0.6215646956109463,0.7229275177719002,1.9662805962249668,9.254010845152823
800,N,0,22.29654403567447,0.9005192289315529,0.9081346450922153,0.6133198010664199,0.6321876146261117,0.7248937225486574,1.875495147836156,9.48417916090807
800,N,0,33.4448160535117,0.9712479417395563,0.9657598637006005,0.6891947779081853,0.7019840961520593,0.7734830061450605,2.243311902736434,9.935329536995471
800,N,0,22.29654403567447,0.9857980404079965,0.9825617718010234,0.56003625889474,0.6434751854836868,0.7814851847258414,2.383030202177988,10.451014505244606
800,N,0,22.29654403567447,0.9907535564438845,0.988941019953236,0.6246149866617169,0.7531172514380168,0.7813758484686641,2.4194186673742952,11.171488654448416
800,N,0,22.29654403567447,0.9578645322500461,0.9482900384283907,0.6596371220437023,0.6607261997655012,0.7602535273800104,2.1387756409697056,9.52707113398559
800,N,0,33.4448160535117,0.9604344470922235,0.9514978606987736,0.60614274839411,0.6563269063387851,0.7501464948361863,2.0698592819057575,9.992427382931947
800,N,0,22.29654403567447,0.9626869403186827,0.9573079025713651,0.62239713205298,0.7133023298478325,0.6928193021160506,1.7380556470894828,9.43157098835241
800,N,0,22.29654403567447,0.8617306421955754,0.8741667788203366,0.573572114214917,0.6573830070170704,0.7152054603632051,1.8122035123325533,9.238440261260127
800,N,0,22.29654403567447,0.9363822064584355,0.9215584031383892,0.6489258253882684,0.6604506653521425,0.7568032070655457,2.196897205706397,10.1859596862509
800,N,0,33.4448160535117,0.9839432482386335,0.9801385914311704,0.6085709313851076,0.7296231711134249,0.757671754659765,2.16810660818263,10.00730486509825
800,N,0,22.29654403567447,0.9757146796421872,0.9701053914344226,0.6528755685348222,0.6359397987087109,0.789248262260919,2.3028500930885416,10.495788652585079
800,N,0,33.4448160535117,0.938552003553815,0.9210598724775303,0.5944919594176945,0.7312011131988208,0.7237903765888377,1.8663259882011645,9.47521509801634
800,N,0,33.4448160535117,0.9644219538714718,0.9562128977595632,0.6448493517692196,0.6307153003186305,0.8103770804997729,2.3698705406211698,10.332505744682642
800,N,0,22.29654403567447,0.9788066859226988,0.9742405966002246,0.6813128859264102,0.6387215304656934,0.8184220404901358,2.35639404552311,10.290298100674955
800,N,0,22.29654403567447,0.9760657424424869,0.9716008748198384,0.6797895829631605,0.623292288830529,0.8193633375845032,2.409003807997797,10.35714349761637
800,N,0,33.4448160535117,0.9909414433310254,0.9890303071503019,0.6804371086279326,0.6145841230812784,0.8133972322527252,2.3778933356451497,10.212237112280196
800,N,0,22.29654403567447,0.9937570103996617,0.9924677707855892,0.6541392837669742,0.6428239823311721,0.8009784580924805,2.3761838058901317,10.772841347150411
800,N,0,33.4448160535117,0.9809604630801414,0.9766584412802835,0.6282178476559384,0.6546388027930925,0.7738691839700053,2.2476291191466147,10.405619666670251
800,N,0,22.29654403567447,0.9816231589269124,0.977070531609418,0.6748795443282691,0.6503586789378127,0.8373262998502379,2.506391304689374,10.601867683680716
800,N,0,33.4448160535117,0.9584095595068649,0.9470865674475196,0.6115739675892627,0.6289026304332693,0.8158088510790715,2.4620207765448923,10.630260590289808
800,N,0,22.29654403567447,0.9663346073680782,0.9583532549579031,0.5840998822733685,0.6545903376735518,0.7750808147614279,2.2597642496841956,10.152427141138118
800,N,0,33.4448160535117,0.9818055659339602,0.973445385781736,0.5509026902794526,0.7006830314503669,0.7421955706737683,2.1373825344369837,10.088732116865247
800,N,0,33.4448160535117,0.9489452312818728,0.952029091993761,0.6434163759613574,0.6678514860642735,0.825688198486771,2.5879367721991056,11.737223599419767
800,N,0,33.4448160535117,0.8539450254148917,0.8585974354967455,0.6525616575754344,0.6143795375236436,0.8199797193495567,2.439946394141758,10.654481348805474
800,N,0,22.29654403567447,0.8424884734688345,0.8419116111503826,0.6739063378291815,0.6146976622256146,0.8384401180987621,2.4120239844003892,10.509127175150338
800,N,0,22.29654403567447,0.9943373051818529,0.9928754000054416,0.6298564987788198,0.6748602572368243,0.7606120097533133,2.1042407006369963,10.19989997150933
800,N,0,33.4448160535117,0.9243200671107369,0.9077894425211146,0.625507932258645,0.6052337361564714,0.818317246514407,2.4236787597724323,10.504573795712822
800,N,0,22.29654403567447,0.9744842028069838,0.966209516897411,0.5589555319367058,0.8187088193440584,0.7188580589760297,2.0952554817442843,10.292662710253612
800,N,0,33.4448160535117,0.8429635226473607,0.8228804792889629,0.6491847862846869,0.6849588479036902,0.8413126261981284,2.7071255991215986,12.015307622942759
800,N,0,33.4448160535117,0.8121470704939961,0.8118940975209663,0.6077455468622798,0.6022144563004938,0.7969061227118167,2.4837382435229434,11.310174462955839
800,N,0,22.29654403567447,0.9558002953341466,0.9484707241042171,0.6792093693829268,0.618915412100381,0.8559453406625164,2.747336807195781,11.962765140323429
800,N,0,22.29654403567447,0.9922055105562397,0.9896623902074237,0.6203330003280451,0.6382776724581982,0.8037338203918375,2.424869089214605,10.910980588830547
800,N,0,22.29654403567447,0.9919331068986652,0.9890504133733835,0.613737552265532,0.6623625276019385,0.7953690294326925,2.448375292732537,11.430857894242768
800,N,0,22.29654403567447,0.8502770491756994,0.8683309334275864,0.6023862723123842,0.6507739292170409,0.7780497421512281,2.1625830500101837,10.567018409642888
800,N,0,33.4448160535117,0.9272406530713153,0.9273225049315849,0.6630730125982387,0.6317879385632073,0.8515700451997924,2.6976500783698154,11.897283929700622
800,N,0,22.29654403567447,0.9752660183933312,0.9650132147180998,0.572098917670473,0.6776017421793168,0.7344357354109025,2.0824340746338965,10.431745101003015
800,N,0,33.4448160535117,0.9629500320600027,0.962670696612825,0.6197402861481112,0.7036779108040926,0.8035484883483421,2.4987612438471603,11.658763202073223
800,N,0,22.29654403567447,0.9938004689722003,0.9931361212485141,0.6555656153525813,0.7402843321316183,0.8721866112436173,3.0126730396594033,13.202630506910642
800,N,0,33.4448160535117,0.9717704392922778,0.96557240918994,0.6459785125045714,0.6155873302717708,0.8401888483089925,2.6045974097297546,11.352766468303027
800,N,0,33.4448160535117,0.8332359771920863,0.8246035825472539,0.635963682336478,0.6254666489697261,0.8151589825655967,2.5460989484230465,11.473985360346264
800,N,0,33.4448160535117,0.9806407010561953,0.978303040414552,0.6340202824709225,0.6695006622932355,0.8353181073357036,2.718927867674574,12.29460790709117
800,N,0,33.4448160535117,0.93454324930697,0.9221659606132117,0.6275775767432856,0.6329892237401689,0.8504702287459771,2.7796070184897768,12.22575294551369
800,N,0,22.29654403567447,0.7555717445755397,0.7699200363510075,0.621696811311153,0.7341443987468559,0.8560690601703261,2.6216914514997955,11.894254751658929
800,N,0,33.4448160535117,0.9644423905498756,0.9574145665574474,0.6509570226189894,0.6637266106093018,0.8361283938945574,2.499936260970347,10.799647463198891
800,N,0,33.4448160535117,0.9500005277398073,0.940937277616707,0.629177022982728,0.6646747382581797,0.8427312007217854,2.6526366547003075,11.505172749305247
800,N,0,33.4448160535117,0.9634378795303536,0.964883073279095,0.6639878150518974,0.6816912896360665,0.8443866042431766,2.6399688541600392,11.480636811482187
800,N,0,22.29654403567447,0.9755410379315862,0.971450049133044,0.6257233104953269,0.6447200430115848,0.8449641651941693,2.7197850960848036,11.854669734765531
800,N,0,33.4448160535117,0.9295012168491406,0.9230640236795847,0.666735207306482,0.6141911053835739,0.8485343949530869,2.6815152933419277,11.793497990314657
800,N,0,33.4448160535117,0.9020563123864443,0.8776412990761915,0.6169289028793257,0.6740945329418511,0.8107956690560701,2.532490329443461,11.623704341951584
800,N,0,33.4448160535117,0.9392946299313208,0.9438537959176545,0.6298635939573454,0.6808592738371619,0.7994618051007432,2.382284556992509,11.114765208730823
800,N,0,22.29654403567447,0.9848156752205497,0.9799108449704644,0.6049400259466886,0.7455354945281545,0.7762419869357672,2.3716177376574294,11.194713804374558
800,N,0,33.4448160535117,0.9650127429786693,0.9576134623238145,0.6344426290313785,0.6392038753409847,0.8221097960051137,2.509624808286056,11.18296023242324
800,N,0,33.4448160535117,0.9205116440585798,0.9319368021850963,0.6253732858615368,0.6671839334050776,0.821987266861432,2.5821831546810103,11.866326926420687
800,N,0,22.29654403567447,0.9916418318743722,0.9892859984014591,0.6258521824219525,0.6894778768698757,0.8264042712048179,2.6772148632141475,12.046163400431464
800,N,0,22.29654403567447,0.9795568579061936,0.9675100943663171,0.5444092522277237,0.7601692114463889,0.7189086331146768,2.0063008800264255,10.173627883570656
800,N,0,22.29654403567447,0.963304576244229,0.9551309747631267,0.6535487092990409,0.626738084385842,0.836472791496808,2.650342428522672,11.802456357209062
800,N,0,33.4448160535117,0.9523841352137403,0.9419203858270604,0.6945398557474899,0.6149432373126015,0.8789353049512003,2.757794048832607,11.543735571212402
800,N,0,33.4448160535117,0.9079890089909096,0.9241149204681519,0.6220988661337706,0.6852240325766948,0.8094807420257135,2.4489841077450722,11.469610616707358
800,N,0,22.29654403567447,0.9686532196349017,0.9613608231480134,0.6365092219663483,0.623830949714078,0.8361650572195645,2.6968541329977276,12.11223545735058
800,N,0,22.29654403567447,0.8738677968087905,0.873124973750939,0.6603745050916361,0.6183477673708434,0.8342376862445274,2.494342199739366,10.945599903977126
800,N,0,22.29654403567447,0.9916079718285625,0.9920992092013703,0.639521789513494,0.6497149380630876,0.8229738676516973,2.5885171098200543,11.628718145203651
800,N,0,33.4448160535117,0.9126091343221968,0.8954532555744629,0.6191948843514193,0.6179370101381558,0.7997649613477446,2.365754593293623,10.847349149812855
800,N,0,33.4448160535117,0.9138535806696598,0.9129299198387789,0.6126035842890691,0.6270998083491174,0.7561539238869018,2.0533219675063834,10.26521272595066
800,N,0,33.4448160535117,0.9192124987153392,0.9042279500831003,0.6515305678945165,0.5805131317484807,0.845908653308703,2.634297588211171,11.698133203307979
800,N,0,33.4448160535117,0.9650697376784952,0.9782680136100353,0.5692617428474488,0.6248192674600049,0.7744533994247501,2.377332140067145,10.621882566039641
800,N,0,22.29654403567447,0.9870080476091991,0.9866632163474613,0.6432995715498179,0.6531270858764061,0.8169289534627064,2.526142468926515,11.486295572413958
800,N,0,33.4448160535117,0.9176947723072947,0.8974433540108175,0.6077494949884716,0.6670180515161245,0.7576328779695422,2.1214182633345855,10.336849356583798
800,N,0,22.29654403567447,0.9774713837154111,0.976833289799767,0.591662615993308,0.7816046355608282,0.7799625185203098,2.4610274361136573,11.376330466514208
800,N,0,33.4448160535117,0.9440270223365174,0.9351139260203021,0.662520330205944,0.6377554935375551,0.8588060513498355,2.719805169602767,11.725038727764678
800,N,0,33.4448160535117,0.9192812503263449,0.9004810838705142,0.6338562818811981,0.6889576064487642,0.8187255574888059,2.550773033411892,11.63164376349452
800,N,0,33.4448160535117,0.9088181017939466,0.8852355962493559,0.6250429974303129,0.629381552503469,0.7791914939135761,2.2032376054593175,10.336735459818607
800,N,0,22.29654403567447,0.9593313993458275,0.9504176879153786,0.6364028488369455,0.6300659261685638,0.8142355432364625,2.4201182024456376,10.783082198190508
800,N,0,33.4448160535117,0.8827398498454596,0.8790198678184458,0.6220507439325788,0.6371933808873878,0.8059138887422442,2.2794962481737553,10.26857552221132
800,N,0,33.4448160535117,0.9636250350857998,0.9549634712385637,0.631213584644123,0.6754965529922105,0.8311222397323714,2.526576457158571,10.905045792976454
800,N,0,22.29654403567447,0.9848643282076168,0.9807787875091201,0.6256559551994648,0.6363166724560452,0.7888260570743041,2.2982862026509183,10.721789298537729
800,N,0,33.4448160535117,0.8560211241766621,0.821319077835875,0.5657644900462977,0.6350981445847427,0.7667399034151147,2.3636860843005687,11.135099097683893
800,N,0,22.29654403567447,0.8314799354598323,0.844386575392716,0.585579780127448,0.6533329955536926,0.7973096025267129,2.297288851478645,10.7822582906242
800,N,0,22.29654403567447,0.9516676410248874,0.9377184532693947,0.5879163313950867,0.6583793357356116,0.7635554101171135,2.2570541742227967,10.826716320899363
800,N,0,33.4448160535117,0.987929973146248,0.9883344219545446,0.6523985972616534,0.5721042285182059,0.8379563366002487,2.5776533887973456,11.28915054599581
800,N,0,22.29654403567447,0.9896895828207676,0.9877280092655877,0.6561822771584725,0.5854060697267276,0.8275512203196809,2.525724931622092,11.246513397985527
800,N,0,22.29654403567447,0.9924484037648764,0.991869396939919,0.6169099030228139,0.7877076329863657,0.8062185298505483,2.612023840617709,11.99819253740433
800,N,0,22.29654403567447,0.8172742427178205,0.8310286931673818,0.5955048315599837,0.6505416055238606,0.8147315874126987,2.4356641045059186,11.29383754916771
800,N,0,22.29654403567447,0.8341602739016968,0.8531660633515337,0.5964679731024499,0.656925906657263,0.8082417638428357,2.426224922692227,11.421095358916721
800,N,0,33.4448160535117,0.9249765556969112,0.9072479600000017,0.6585457917724101,0.6271797020977403,0.8297043933375572,2.4974292116532495,11.056456876240686
800,N,0,33.4448160535117,0.9557519889817658,0.9465234435644381,0.6415205139958983,0.6395857557574378,0.8358587730119496,2.4695241359558326,10.466327436013545
800,N,0,33.4448160535117,0.9420272892223231,0.9291925750835026,0.643386357088565,0.607016756042914,0.8393730595364806,2.541116365371546,10.76969997779408
800,N,0,22.29654403567447,0.9912585232321022,0.9889716696434857,0.6133138103670717,0.66330062610879,0.7901515087657062,2.4003260779137787,11.101934221611335
800,N,0,33.4448160535117,0.9335177290668362,0.9293883071160799,0.6810955535910704,0.6283244801203863,0.8542789718538648,2.710637307684548,11.81479649358807
800,N,0,33.4448160535117,0.963223249532455,0.9563069818773271,0.631429415271919,0.6492955150332459,0.8116848652185917,2.533973967117752,11.73445637236109
800,N,0,22.29654403567447,0.9913134964522424,0.9893839944877981,0.6657336941446345,0.6772637107156353,0.8430666769204684,2.710468002306317,12.057100786055283
800,N,0,22.29654403567447,0.9955018902112491,0.9947029296937658,0.6252681495404888,0.6841666794694242,0.8220127697475783,2.6704087873988236,11.994769320018193
800,N,0,22.29654403567447,0.9863150312057298,0.982972768557715,0.6431142357852542,0.6640781084243575,0.8115638366015101,2.541129936316395,11.619507009189732
800,N,0,33.4448160535117,0.956954099448316,0.9524406583594469,0.6951246718504186,0.7224980125588316,0.8559196879052118,2.703494584051878,11.596658262164665
800,N,0,33.4448160535117,0.988703213838429,0.9865252778181444,0.6569347114451346,0.6578682201245097,0.8324235799534544,2.6189993663235156,11.658913763646936
800,N,0,22.29654403567447,0.9837935786366805,0.9800577415966011,0.6345967160946302,0.6607053071006046,0.7996043905326244,2.498067379313732,11.561711061581192
800,N,0,33.4448160535117,0.981767180025476,0.9829722209427609,0.6583066759179472,0.6472035872937822,0.8542891183686525,2.73410032877538,11.696091368043309
800,N,0,22.29654403567447,0.9808984860819996,0.9759234663725253,0.6950567560659336,0.6212738259878042,0.8503285331886162,2.6299177140330414,11.383773791980634
800,N,0,22.29654403567447,0.9532086683197944,0.9445159518953941,0.6769766381414923,0.6418839645534196,0.8660823205364012,2.8041754875531235,11.994619308446689
800,S,0,33.4448160535117,0.8560332164622506,0.8379420361527053,0.651605870710363,0.6353759707838755,0.7960686071063774,2.3851796789880035,10.799607953680859
800,N,0,33.4448160535117,0.8556127276883652,0.8535216687743526,0.665456922325621,0.6265984450118017,0.850177926890737,2.671072870254709,11.384878061707585
800,N,0,33.4448160535117,0.8574513453205976,0.8206337797191456,0.5744290800821051,0.7340324223551602,0.7771954211507444,2.2552034977856357,9.911593222761375
800,N,0,33.4448160535117,0.9497477837643877,0.94262561098837,0.6801880453798679,0.5847546184281656,0.8429309647216036,2.6378264098502413,11.422206778234589
800,N,0,22.29654403567447,0.9642785358745365,0.9571442206870743,0.5818155941472207,0.6829613020414644,0.7772695084179408,2.3483499600943905,10.846580691118639
800,N,0,33.4448160535117,0.9355718549890182,0.9277635098726582,0.6664102995618613,0.603744877607233,0.8234648159136324,2.359239777929022,10.115094264269947
800,N,0,22.29654403567447,0.9623017062720239,0.9636161911038255,0.600040498168283,0.6483315429319245,0.757430822441477,2.2155658439732333,9.94370194688325
800,N,0,22.29654403567447,0.9623528474903067,0.9572914587328695,0.6367610228119653,0.6668566405727838,0.8248585805788426,2.49567492656562,10.926453605790886
800,N,0,33.4448160535117,0.9795956277687984,0.9778610681424168,0.662376420227893,0.6250134416289674,0.8458434989091341,2.62917586523972,11.403428234741794
800,N,0,33.4448160535117,0.8575230996311364,0.835945331210783,0.6488855186501944,0.6641032508950581,0.8672913573013147,2.8455212277997957,12.411055933580405
800,N,0,33.4448160535117,0.961432889331056,0.9714855287823257,0.5766626373196191,0.5997613984847732,0.7721145949140673,2.2180332183405884,9.79905599569377
800,N,0,22.29654403567447,0.9572066339134754,0.9533403002971287,0.6579903499278459,0.6589115754307296,0.7737467230886659,2.162742292332697,9.924253752992074
800,N,0,22.29654403567447,0.9648679865279424,0.9724556570565329,0.6419566985384101,0.6429216139773013,0.8082261891250818,2.190397764165951,9.470465697661988
800,N,0,22.29654403567447,0.9769528289745798,0.9851473946126371,0.61854662113882,0.7084389454005213,0.8329927510608193,2.753863464928468,12.009294829270969
800,N,0,33.4448160535117,0.9584413541133844,0.9523743175265834,0.6531567345356944,0.6967578458137681,0.8544705454762326,2.6361988236986726,11.238138450082126
800,N,0,33.4448160535117,0.9748943731679554,0.9728046404708224,0.6703196505510948,0.6016024589002671,0.862275101397169,2.7273974998808574,11.530607578409953
800,N,0,33.4448160535117,0.9037064634866013,0.8934198642244332,0.6852100450783508,0.6486287501408825,0.8584690906131068,2.485356233238943,10.410929790624786
800,N,0,33.4448160535117,0.8669301198892931,0.8474859687815893,0.6041562200891925,0.5864284067118033,0.8091056136144157,2.4922308097810952,11.59794590170633
800,N,0,22.29654403567447,0.9659886454577031,0.9754436411518513,0.6708214393649531,0.6384995216008271,0.7960415825829289,2.1548464824531437,9.376203435130865
800,N,0,22.29654403567447,0.9629324548944573,0.962165689217119,0.5907685960233876,0.6562731798578763,0.7946801878808236,2.351868666026459,10.119357053887983
800,N,0,22.29654403567447,0.9814105241380535,0.9799313619121197,0.6333030747679267,0.6452437921446893,0.7861328003520419,2.3147583769551776,10.734672119536032
800,N,0,33.4448160535117,0.9213334625472295,0.904160166881649,0.6338661527693858,0.6298158821801418,0.8338712414044597,2.511886390643568,10.760761361492406
800,N,0,33.4448160535117,0.9359288236716634,0.9249820598192644,0.6314608977409051,0.6558466228576627,0.8418766759985961,2.6840885887678954,11.617619702548053
800,N,0,22.29654403567447,0.9769793214433815,0.9775652926791435,0.6273652990411169,0.6685217440983273,0.837992370434893,2.4819137123211066,10.288794333230026
800,N,0,33.4448160535117,0.9888224896508688,0.9884062093773721,0.6707298139261795,0.677296208394605,0.8285708875281788,2.4451217091014166,10.572570902848582
800,N,0,33.4448160535117,0.9141161665105529,0.8968337493297256,0.6548525985937325,0.6219809969451506,0.8494477018328291,2.610715162252768,11.1919164019689
800,N,0,22.29654403567447,0.9741518039252639,0.9700175965181871,0.6692058372585121,0.6209732586213347,0.8822650338962066,2.830460956326301,11.83526055362322
800,N,0,22.29654403567447,0.9888305734909768,0.9888164951982459,0.6598816514848513,0.6263238011747545,0.8539407779403941,2.7222135686005227,11.808504934108667
800,N,0,33.4448160535117,0.9639860995265659,0.9590703393139137,0.6853383325448297,0.6841462831899241,0.8673676455011953,2.7006831074827518,11.36055089726365
800,N,0,33.4448160535117,0.96075595348474,0.9540415400006246,0.6674825590969525,0.6147259427671563,0.853267736496337,2.6389777249229223,11.424661366760953
800,N,0,33.4448160535117,0.9662597218338378,0.9607480003436872,0.6842089061594421,0.6235161985155755,0.874257222094668,2.785374666500504,11.754425223566095
800,N,0,33.4448160535117,0.8592380840344718,0.864914212981473,0.6780604514424374,0.5940416958558903,0.8739456624348961,2.8057024021688797,11.77763024438128
800,N,0,22.29654403567447,0.9941184479936925,0.9947146940498248,0.6553608908654831,0.6401557144654468,0.8385694767667965,2.610663529773494,11.50904623438305
800,N,0,33.4448160535117,0.965675915737626,0.9604087354534199,0.6623491608566454,0.5944592379638666,0.849971926226492,2.5954999348892036,11.080649425053506
800,N,0,33.4448160535117,0.9709404304953101,0.9688926100370278,0.6979157589621011,0.6577994656353565,0.8940743942311042,2.860759832342239,11.824380820544299
800,N,0,22.29654403567447,0.9882190307139905,0.9867093543148865,0.695497304005869,0.6029597436165796,0.8672375014396051,2.7367107218907663,11.7588737453707
800,N,0,22.29654403567447,0.9649858321016477,0.9586137421010147,0.6630862438074788,0.6143949662923797,0.8658771825498489,2.7165674892984955,11.440171097631792
800,N,0,33.4448160535117,0.9704656609190919,0.9705787350409308,0.644410195043451,0.6462063420110414,0.8353946258288998,2.646707020828559,11.54055833776686
800,N,0,22.29654403567447,0.9778406324341891,0.9735542366443958,0.6689966987442392,0.6460743819431922,0.8532524345867638,2.7619919949698573,12.136445498153874
800,N,0,22.29654403567447,0.9628952637637899,0.9569684877721067,0.6247693195336306,0.6159040474301228,0.857364228834011,2.672499120250966,11.16805782172501
800,N,0,22.29654403567447,0.9603100261035659,0.9565711746433702,0.653720950134844,0.6534756047295787,0.8275470739047537,2.5231379962088187,10.957186978399168
800,N,0,33.4448160535117,0.9838122023306932,0.9825528724825112,0.6786205960503523,0.5944367500440322,0.8747737810850879,2.6824386856360767,11.091291049537375
800,N,0,22.29654403567447,0.9886619244245477,0.9905494049421965,0.6464327423627956,0.6149332466994695,0.8471095886753552,2.7187243079724848,11.910160175923957
800,N,0,33.4448160535117,0.8538888502723395,0.844616781942269,0.640938758312208,0.6310496769060145,0.8564178368536222,2.751339416588031,12.00967276604993
800,N,0,33.4448160535117,0.9490260807344857,0.9413732563585586,0.6684154990516502,0.6000201619080491,0.8590008673389311,2.7243106689705785,11.945727374022027
800,N,0,33.4448160535117,0.8750585708485172,0.876405570973376,0.6353557872043092,0.5674664354252577,0.8164132885852032,2.439003635051883,10.964924124749345
800,N,0,22.29654403567447,0.9898687008058743,0.9893424464340344,0.6829448678448675,0.6056127499737991,0.8862882733246408,2.9072562035444287,12.263588727510166
800,N,0,22.29654403567447,0.9873898988706689,0.9879998875008148,0.674195664769581,0.6097289943910305,0.8654529481524018,2.7159649039312237,11.597537939599318
800,N,0,22.29654403567447,0.9470936895740603,0.9423696219476684,0.6733144526609467,0.5901258929325676,0.893325236323377,3.0287924197734455,13.071533667615391
800,N,0,22.29654403567447,0.9767494535229767,0.9732603369883729,0.7109876958965915,0.6356975980693724,0.8808804627210779,2.653923310237037,11.02573441685868
800,N,0,22.29654403567447,0.9610926141114983,0.9558650338414694,0.6389278726010365,0.6184330593399525,0.8329713342012733,2.5737030643652528,11.53010363503919
800,N,0,22.29654403567447,0.885231279376614,0.878913135144007,0.6632826285003253,0.5861900649512329,0.8654067414089603,2.76360188524829,11.906620141984822
800,N,0,22.29654403567447,0.9822145786389667,0.9780314785919595,0.6539037123809723,0.640511070319218,0.8464920695999613,2.6317455130782204,11.390743784554532
800,N,0,22.29654403567447,0.9885003408263645,0.9860299334705619,0.6480279213066201,0.6430799396214324,0.8589818329612103,2.837598774019685,12.34892837286083
800,N,0,33.4448160535117,0.8201733894059487,0.7979883071414622,0.6115308961817816,0.6620830654758657,0.824807508455131,2.6473310931895746,11.993724975948973
800,N,0,33.4448160535117,0.9740494423707882,0.9687832928514232,0.6536167477837691,0.6224285217997643,0.8629362815278562,2.792652545680036,12.09666977593969
800,N,0,22.29654403567447,0.9941407481387897,0.9929821129707689,0.6534320966591397,0.6125565222595929,0.8421168881406041,2.6538358057343405,11.682978428392714
800,N,0,22.29654403567447,0.9615393397234243,0.9537366813256197,0.6820691172176209,0.5963249216952339,0.8639011463036718,2.75902430101219,12.050279542979501
800,N,0,33.4448160535117,0.895447296124292,0.8735296310887752,0.6588735649505738,0.635653117140465,0.8408034588381017,2.583679928716311,11.708331529354835
800,N,0,33.4448160535117,0.8954039954014866,0.8750721082662105,0.653566278798979,0.6309175048370443,0.7929280969361057,2.2291294335766976,9.503616464938021
800,N,0,22.29654403567447,0.9980548431631647,0.9974638918673666,0.6402717404459131,0.6591003203573136,0.8300048304496683,2.663323245678863,11.968929421613769
800,N,0,22.29654403567447,0.9732200356145752,0.9692741656047281,0.6348193395535646,0.5911606810995056,0.8395170719413876,2.5867822961046127,11.163061435176473
800,N,0,33.4448160535117,0.9454394913297686,0.9347901121939483,0.6873892173385076,0.6290316092253221,0.8707295416156132,2.730129339419455,11.459994514938955
800,N,0,33.4448160535117,0.9365404405622363,0.9222864231194816,0.6392106507247447,0.6199408311236349,0.8262939966913028,2.5565038993747446,11.451257230233116
800,N,0,33.4448160535117,0.9502020276423002,0.9424030557566241,0.7017608457107037,0.6387983308956218,0.8915779698756788,2.922183751145981,12.397934041704026
800,N,0,22.29654403567447,0.9870655536120044,0.9846983338880866,0.6607318298227274,0.6283410270197538,0.8566477810163695,2.749115412585429,11.948781237465358
800,N,0,22.29654403567447,0.9878088939323378,0.9872367959750381,0.6649295566925898,0.6171298503841883,0.8353291084740477,2.642370178392355,11.968854311519017
800,N,0,33.4448160535117,0.9639951185585252,0.9581555224610503,0.6455179283651606,0.6184684219306896,0.8572036666777065,2.8001903252300235,12.224231703129602
800,N,0,22.29654403567447,0.9878316990544371,0.9850528371228826,0.6366552829925407,0.599371044105429,0.8499617401274236,2.694205660023101,11.602104672173137
800,N,0,33.4448160535117,0.9873031059520804,0.9855961375122142,0.6812079173741179,0.6656536907016476,0.8736271194213507,2.879893676860637,12.414316834952405
800,N,0,22.29654403567447,0.9359693098328729,0.9245778190702671,0.6256239802331649,0.6303835986345898,0.8158745039810952,2.544274984191981,11.688610828771687
800,S,0,22.29654403567447,0.9800141232717643,0.9885551479448254,0.6289909342224301,0.6411502147966575,0.8058811763869218,2.53506777254471,11.383755726025404
800,N,0,22.29654403567447,0.9413583433217892,0.9412015424753242,0.6009785081129566,0.6826267985193482,0.7806316952602452,2.299634380502384,9.839344220606737
800,N,0,33.4448160535117,0.933241771765475,0.9260133491802642,0.6890315267758637,0.6242889070635674,0.869477768124826,2.7163736313463094,11.742284173268448
800,N,0,33.4448160535117,0.8825716316787007,0.8762241854968699,0.7038256517687653,0.5972274360994378,0.904907152003364,2.9531918377419313,12.231045530591325
800,N,0,22.29654403567447,0.9906368585040353,0.989004570363334,0.6690557000631308,0.5872703180829584,0.8675841087864923,2.7572535386806756,11.770681600921462
800,N,0,33.4448160535117,0.953829609584247,0.9438195539045343,0.6823142557945807,0.5986582653775382,0.8775012409918713,2.8307369867906638,12.04957299162812
800,N,0,33.4448160535117,0.9867445624201706,0.982778392774837,0.6006778075092454,0.6402672411610958,0.8105543058863248,2.4739233941312917,10.97896483861565
800,N,0,33.4448160535117,0.9738377931627384,0.970528073157077,0.679617844531678,0.6744032396959665,0.8896963254338176,3.0983857700461273,13.600516027470892
800,N,0,33.4448160535117,0.9670746460722732,0.9628836619073705,0.6584510240578746,0.6504370654868961,0.8839901365192252,2.9548962908948764,12.521480435913203
800,N,0,22.29654403567447,0.9893067862099293,0.9905366513186539,0.7034143220306688,0.6653332380067777,0.8873987632776519,2.9804963899438826,12.903324656997166
800,N,0,22.29654403567447,0.9647432457696552,0.9598979855911853,0.6831091666846579,0.6279477263979979,0.8890427272132916,2.8882029399345477,12.143206752278134
800,N,0,33.4448160535117,0.969381528163564,0.9652262955862032,0.6943133133617612,0.6448929646777484,0.8631353499062687,2.7908414984148684,12.345361843742031
800,N,0,33.4448160535117,0.9544838126968268,0.9477311259697403,0.732365838270873,0.598297435087774,0.9112129799544197,2.986689888062982,12.436249664161751
800,N,0,22.29654403567447,0.9762686328510947,0.9748121810620404,0.670543974310199,0.6247005083389867,0.8613087449966241,2.724074550251472,11.742763961133042
800,N,0,33.4448160535117,0.9495469692102543,0.9419597397430386,0.6699468470726211,0.6212442144393664,0.8680182044302763,2.828172529982313,12.326440085852784
800,N,0,33.4448160535117,0.9833317946020967,0.98123461142793,0.6993266442652623,0.5932024366653745,0.8883777892339847,2.790320299663642,11.583435592391805
800,N,0,33.4448160535117,0.9818214162995783,0.9801059199897071,0.6732638718099453,0.657116606232106,0.8462902436055896,2.698580803074698,12.067268065952328
800,N,0,22.29654403567447,0.9936845265592109,0.992288590802965,0.7034932601804649,0.6251716884843169,0.8813226361453464,2.8344002728394577,12.044267776164547
800,N,0,22.29654403567447,0.9938904850535011,0.9931157871186432,0.6758873424448444,0.6217558654020657,0.8561304947841726,2.728810884282695,11.891009669365587
800,N,0,33.4448160535117,0.9900108202128997,0.9902911861286996,0.6818422868785226,0.5771529403787584,0.8752960375232561,2.801539717763164,11.950627438099078
800,N,0,22.29654403567447,0.9921869052163073,0.9923112274426946,0.7151042074476639,0.639952638714922,0.877070232648881,2.9073179390313753,12.710925353206465
800,N,0,22.29654403567447,0.9914041139736406,0.992290002313266,0.685234489505587,0.6210784374422338,0.8684826630407175,2.8078848030526995,12.205837466453515
800,N,0,33.4448160535117,0.9028237141758719,0.8862108706465213,0.6631582041274942,0.6286571182508781,0.8597772154542521,2.783836215880594,12.307980964900466
800,N,0,22.29654403567447,0.9897323919041581,0.9902112008706565,0.6950169718921851,0.6181875531140149,0.8792197269189336,2.819952066285328,11.990205555690366
800,N,0,33.4448160535117,0.9699936573498867,0.964544990831788,0.7090067978515965,0.5794847798126572,0.8560856581346746,2.614398133675844,11.404013983736476
800,N,0,33.4448160535117,0.9629758217838762,0.9554299838741701,0.6965714265587747,0.6363546622515515,0.8853610242348713,2.8545816267763766,12.000290652109742
800,N,0,22.29654403567447,0.9816288097653616,0.9816595825881727,0.7151181144983619,0.640965431483005,0.9213533120054578,3.1635412446840845,13.30304593105328
800,N,0,33.4448160535117,0.9495684279501619,0.9404874759115459,0.7086966677918832,0.6413996764594007,0.9000804822956932,2.988967617593927,12.59756172840206
800,N,0,33.4448160535117,0.9414500320497253,0.9330582784825431,0.6937196965688801,0.611216380193577,0.8831668942369231,2.844881024347476,12.160397649847063
800,N,0,22.29654403567447,0.9645374338750569,0.9605840160342889,0.6982119486265863,0.5945369752365399,0.916861925659508,3.246662003492865,14.049189517978254
800,N,0,33.4448160535117,0.8787503409362514,0.8716424760146005,0.7095511535123599,0.6352660902910848,0.8958648438515829,2.9521795328978295,12.506287072352167
800,N,0,22.29654403567447,0.9636581309802149,0.9559348454230039,0.6892176755183541,0.618157983505033,0.8742823330219753,2.8107237976860193,12.05310286680287
800,N,0,22.29654403567447,0.9754951990637898,0.9711139881491545,0.6749282780834756,0.6141640087791886,0.8564393280605748,2.699020811068111,11.743940336460359
800,N,0,33.4448160535117,0.9149732794998513,0.9002290220023694,0.7102324448781019,0.6250809378657084,0.898960898465743,2.9457039947326775,12.42244949519622
800,N,0,33.4448160535117,0.9559262647213577,0.9486925818846517,0.698786092859152,0.6399894705214559,0.8732655448981208,2.8175360236487084,12.145542685764028
800,N,0,33.4448160535117,0.9110818212366474,0.9143325350654823,0.7020931882220072,0.6252388047235865,0.9093183963244739,3.1238005015966652,13.38725470563204
800,N,0,22.29654403567447,0.989849740225652,0.9930743105271896,0.6779937561220994,0.6624987936550935,0.8827042095315898,2.967796292457615,12.806981107224306
800,N,0,33.4448160535117,0.940759150741285,0.9372359982744897,0.7280669193529622,0.640160546408706,0.9134397365999931,3.156562414980927,13.655498194495246
800,N,0,33.4448160535117,0.8401355355404883,0.8265379902796267,0.7050710745101851,0.6888512970605882,0.8969922879908283,3.0725581502455035,13.292817572667003
800,N,0,22.29654403567447,0.9874828106802139,0.9864414328084208,0.6735039016119032,0.6446535702696675,0.8771595588523855,2.9959884842296645,13.206696782234895
800,N,0,33.4448160535117,0.9499349359879162,0.9401741007412647,0.6991434951671063,0.5776385541433783,0.8793833757357885,2.847271498084875,12.159043324612632
800,S,0,33.4448160535117,0.9480332429774053,0.9435006244076694,0.6619552468003282,0.6481992440215641,0.8134995994359572,2.3971996772514856,10.397964288207069
800,N,0,33.4448160535117,0.9675908901740928,0.9649379652554678,0.6790288991831525,0.6126618606432986,0.8700063332169987,2.806525073264068,12.144949001294801
800,N,0,33.4448160535117,0.904608292880382,0.8874684025322612,0.6969314468853929,0.6256093301353912,0.8825392363936209,3.026823163827933,13.301832115404258
800,N,0,33.4448160535117,0.9524354580774557,0.944676229714117,0.6584957175661866,0.6330398235730366,0.8634228132169971,2.764661963317922,11.833624188549908
800,N,0,22.29654403567447,0.9890694243802718,0.9894893169817465,0.6562602118243617,0.6583884551478595,0.8757893392253492,2.9237415511414424,12.488863328235805
800,N,0,33.4448160535117,0.806956924777586,0.8096857019196525,0.6910939440048657,0.6754211318947079,0.8741171235292418,2.9361282894216805,12.666922659748009
800,N,0,33.4448160535117,0.9618685804498268,0.9563893556084426,0.6832039724911337,0.6460907889504964,0.8741685608874318,2.9111013193648683,12.826499981146835
800,N,0,22.29654403567447,0.9801092874840605,0.9777774305079016,0.701586452293385,0.6235413813535495,0.8728025147016201,2.839340175496691,12.238748292372927
800,N,0,33.4448160535117,0.9707870631224532,0.9681250762696918,0.715825322721228,0.6298646914847778,0.9121574804521956,3.139045575365342,13.481737166463665
800,N,0,33.4448160535117,0.9068385081806936,0.8902668462851778,0.6959352531179079,0.6493987126463204,0.8747720292428235,2.8319256614922903,12.259160093308406
800,N,0,33.4448160535117,0.5441136455248036,0.5308340364094852,0.6983094518824801,0.6493200784814094,0.9179213008235735,2.7925689310505706,12.226012176149515
800,N,0,22.29654403567447,0.9836671746624237,0.9828678182169726,0.671735339881518,0.663763910114941,0.8821965340625125,3.0113355111092996,13.171705491181314
800,N,0,22.29654403567447,0.9603504602875856,0.9544822112379105,0.6830812814720584,0.640757287554778,0.8907949286912776,2.973620710403249,12.720518308072919
800,N,0,22.29654403567447,0.9916712215022983,0.9892187855190604,0.7060822271548591,0.6647903522774513,0.8865086381275513,2.9533505807750173,12.66382484212711
800,N,0,22.29654403567447,0.9716172445184763,0.965225536451505,0.704232996726415,0.6123516471044321,0.8859927323871254,2.948206330341944,12.783283718599415
800,S,0,33.4448160535117,0.9058490476900047,0.9131247548824262,0.7337374832130823,0.6389193171792253,0.8810633278574094,2.9094500074535605,12.694883787337533
800,N,0,33.4448160535117,0.9734049165301367,0.9709051564864251,0.6708340824087492,0.6786494822379697,0.8804538982927074,3.0534780948729887,13.552940578580337
800,N,0,22.29654403567447,0.9635472849704494,0.95670551958613,0.6719105764355212,0.6154271500565323,0.8770001659310326,3.0169350568785673,13.514715707816865
800,N,0,33.4448160535117,0.92270442186677,0.9350522682686834,0.6259691380254654,0.6461844210486136,0.8083455525303872,2.4876617031534924,11.919663323982732
800,N,0,22.29654403567447,0.9522136121314386,0.9440619197351873,0.6662099287861455,0.604175298922023,0.8641670359481464,2.7883735656283237,12.122507048819532
800,N,0,22.29654403567447,0.9699942430952981,0.9680720082189607,0.6462487343318412,0.6074517762025118,0.8473366008829244,2.703401365852876,11.927236318341743
800,N,0,33.4448160535117,0.9127212846985467,0.9315091167474333,0.6406660034983572,0.6965599968788005,0.8517848785920553,2.6988593053180363,12.017360402527618
800,N,0,22.29654403567447,0.9795930992080824,0.9753622021928104,0.6744527460785205,0.7019943795171967,0.8761347136135708,3.0338180922224645,13.404399876876738
800,N,0,22.29654403567447,0.9897327470247851,0.9857558648295571,0.724107367399358,0.7036821527154582,0.8902319421183394,3.0282693174510626,13.008148819773183
800,N,0,22.29654403567447,0.9968402814724785,0.9953722833652036,0.6215009272750497,0.6532924678064348,0.8197704184552187,2.59381617588646,11.606478334968186
800,N,0,22.29654403567447,0.974895483972057,0.9676604668269171,0.6122116459391626,0.6346673441303385,0.7864366912849577,2.406504835944246,11.392864191674983
800,N,0,22.29654403567447,0.9786803177336824,0.9747757666814029,0.6430301776648862,0.6943785755012529,0.8384377913814959,2.7854957798652435,12.643083902115219
800,N,0,22.29654403567447,0.9763336094078457,0.9731583989850484,0.6708202197932507,0.6414890227455141,0.864199084043483,2.7128257182123168,11.561277922112149
800,N,0,33.4448160535117,0.9874340769908647,0.984562466954399,0.6345188763156557,0.5885317823637641,0.8215677444869809,2.503273479754209,11.102429607197962
800,N,0,33.4448160535117,0.9648091409458274,0.9575193105501543,0.673101022832746,0.6226068610268272,0.8605153032251478,2.634391408274514,11.170586912714853
800,N,0,33.4448160535117,0.9309324421361505,0.9291307647642817,0.681788553752065,0.6244170924223307,0.8567269847668484,2.735380238121054,11.92490685982316
800,N,0,33.4448160535117,0.9870311659591031,0.9841598121026083,0.664591064913209,0.6726946605845503,0.8562224990967954,2.790984499114518,12.119661482689379
800,N,0,22.29654403567447,0.9822984794705117,0.9799629065675718,0.6529263317142646,0.7491678866950374,0.8332327643085482,2.7917883044035676,12.735088296142159
800,N,0,33.4448160535117,0.9335430795291803,0.9198235670161925,0.6825199195979197,0.6464304022142529,0.8873657113008473,2.9302556900944405,12.495831516417446
800,N,0,22.29654403567447,0.9797708622533235,0.9754656872817865,0.6930366753400543,0.6221551730388462,0.8857776664832251,3.034354189334763,13.222045388655147
800,N,0,33.4448160535117,0.9829848295712231,0.979646401048753,0.6653150152503444,0.6526609164457046,0.869061172376477,2.885745540605673,12.528057991016563
800,N,0,22.29654403567447,0.8904918407073363,0.890172684649346,0.6582570439817732,0.618787656184888,0.8515964332342488,2.672563471109338,11.710422852509803
800,N,0,33.4448160535117,0.8316452468974113,0.8214164316969708,0.6621418824340559,0.6450114640739418,0.8447289681251605,2.7581937923749926,12.418587956714843
800,N,0,22.29654403567447,0.991212631850283,0.9919430146341432,0.670711415825134,0.6431348628200296,0.8655614595678911,2.8341155093968085,12.34185392184324
800,N,0,33.4448160535117,0.8883197487713872,0.865163488574873,0.679751099665234,0.6685400407467182,0.8531332366145183,2.7188912742615425,11.9948515098441
800,N,0,33.4448160535117,0.9150547509667767,0.8955982087033563,0.6393277836608305,0.668651040401473,0.8089285464098422,2.6277035723172983,12.552558953478815
800,N,0,33.4448160535117,0.9191246853381649,0.9297307300749249,0.6756808789942382,0.6399330006428833,0.8894696578324983,3.034375140424485,13.33302016227226
800,N,0,22.29654403567447,0.9764603094912158,0.9715810031685379,0.6043324566298618,0.6632899868123416,0.7869493219878221,2.4679334161985316,11.589783413096738
800,N,0,22.29654403567447,0.9700969469775464,0.9634325972652581,0.6900561710493771,0.6521340381223404,0.8938213394631519,3.1694595919463553,13.890434256903585
800,N,0,22.29654403567447,0.9916212876077015,0.9894823147503414,0.6205377437699182,0.7331624010639397,0.791112033623693,2.5868762927754925,12.182458110093544
800,N,0,22.29654403567447,0.9854126424700785,0.9817548541687687,0.6663759778726407,0.7343484831514576,0.8513417325396985,2.917460919590696,12.99667335291219
800,N,0,22.29654403567447,0.9706201782007868,0.9654660286529803,0.6311373757404823,0.6399015586951884,0.7958648483735309,2.509474055794401,11.745845173510178
800,N,0,33.4448160535117,0.9634826697251162,0.9558571966749994,0.6684656052065231,0.6066257573517121,0.8496034581922997,2.608929310029709,11.164497147098182
800,N,0,33.4448160535117,0.9192836678702786,0.9081803707156247,0.677629320774918,0.591057051621305,0.8710381479358921,2.7875087881960883,11.777961666992464
800,N,0,33.4448160535117,0.9183233314464408,0.8988941051801266,0.6840708283409912,0.6682161547510894,0.8342019499389352,2.6030177002151245,11.372668018711842
800,N,0,33.4448160535117,0.9670406218701291,0.9577852133365521,0.6127838267268448,0.6651345655608468,0.7787100272581133,2.249677585527473,10.53007295648574
800,N,0,22.29654403567447,0.9919106549456518,0.9908278944956672,0.6298613417762231,0.695861061786404,0.7759716333216932,2.356807835367787,11.257728435926285
800,N,0,22.29654403567447,0.9535874713937073,0.9454021709710649,0.6302632820286871,0.6055154170255825,0.8405504238526998,2.700061942079545,11.710198451718547
800,N,0,33.4448160535117,0.9523783944902982,0.9513413417193209,0.6374426876847044,0.655305318065111,0.7774556991239008,2.2783295733403977,10.93023240858993
800,N,0,33.4448160535117,0.9404278871097308,0.9296959003362201,0.7013787286031913,0.6523651816964007,0.8738127089787985,2.730417575073897,11.506999863821646
800,N,0,22.29654403567447,0.9915390117092604,0.9922758538223709,0.6750724295614587,0.6830837762560543,0.849864311517261,2.7646398727811192,12.068681765093908
800,N,0,33.4448160535117,0.9688421554944976,0.9641200132070249,0.6912170813650304,0.6579785830902449,0.8351395378700026,2.614629687445906,11.287325188235409
800,N,0,22.29654403567447,0.9869838677078988,0.988644793297253,0.6601704228998706,0.6878576717405329,0.8339252729922134,2.6366318213422213,11.51329587151501
800,N,0,33.4448160535117,0.932649458088941,0.9323092347869383,0.6431249641144339,0.6373617274255344,0.8022352436916902,2.370754787096318,10.988483933222087
800,N,0,22.29654403567447,0.9443649339161976,0.9335396082391267,0.6202092740051461,0.6737303796809704,0.793602857147113,2.3817538824466817,11.080463834508874
800,N,0,22.29654403567447,0.9691398677216806,0.9642490591035078,0.6191179374491774,0.636713930914778,0.792392868306227,2.4070629595140756,10.883428413024328
800,N,0,22.29654403567447,0.972502603669314,0.972168582457933,0.628390090150673,0.6843338217226613,0.7918683178593854,2.505785879779071,11.64444890034222
800,N,0,22.29654403567447,0.9763733959031771,0.9708673724141429,0.6647471620040681,0.7014913718136907,0.7967571424105874,2.4973181295221245,11.237273351419029
800,N,0,22.29654403567447,0.8944923793834921,0.9079712169648786,0.6618501766656899,0.6403790068290659,0.8450553663482205,2.6480567611328296,11.930889282180264
800,N,0,22.29654403567447,0.9873134832426946,0.9854960855212759,0.6098771534893769,0.6791836146645046,0.8132304599504301,2.6045485908824757,11.669381567024573
800,N,0,33.4448160535117,0.9624894055164593,0.9655843212387737,0.628548545359006,0.7060537930509865,0.8097802154297079,2.5815374367208936,11.916726083026107
800,N,0,33.4448160535117,0.959755164633675,0.9628960899375569,0.671330451486695,0.7032974421528717,0.8494933616574974,2.758914657948178,12.288009498150087
800,N,0,22.29654403567447,0.994680712981731,0.9934968820901343,0.6584774372092048,0.7114431461984798,0.8252807034277612,2.665426042269834,11.958312070899629
800,N,0,22.29654403567447,0.9959886589507979,0.9947354384804965,0.6820605720982603,0.626736416326559,0.8477512940235035,2.592237990163878,11.132333959300157
800,N,0,33.4448160535117,0.940008908273833,0.9345410026840024,0.6624964515916725,0.6511318176657057,0.7977074032164942,2.2967387015893985,10.340683761622797
800,N,0,22.29654403567447,0.9842929726433685,0.9841386893497166,0.6239050626247197,0.6161775753551992,0.82603667782789,2.60415134539267,11.294671139313147
800,N,0,22.29654403567447,0.9165338830032264,0.8987373559964935,0.5974288983050319,0.6133736407072886,0.7814624191131381,2.444838795486191,11.458389560786214
800,N,0,33.4448160535117,0.9550484779115711,0.9686485890134713,0.6609583112892476,0.5907712332808523,0.7861969420793306,2.177176592062079,9.241564858346573
800,N,0,33.4448160535117,-0.20013561966130075,0.18909726950656175,0.6769620032122263,0.6257264745989098,0.8777028044652292,2.238907640210917,9.55880507781427
800,N,0,33.4448160535117,0.9158312809002732,0.9069915730679124,0.6119743390700337,0.7178404373602878,0.8165343306533986,2.3648336053944234,9.503066626892592
800,N,0,33.4448160535117,0.8370649181992208,0.8173541413015939,0.6969724848167139,0.6552980675251601,0.8061704235049749,2.3930271901322944,10.92986844027302
800,N,0,22.29654403567447,0.9265924456069532,0.9096197304152879,0.6171098762162747,0.5882663919389204,0.7517601527791868,2.110857085278928,10.53509420020793
800,N,0,33.4448160535117,0.9526323946891987,0.9549717787100702,0.6650894823512122,0.6333908726076817,0.8358421181264422,2.5008751638334887,10.474610787503238
800,N,0,33.4448160535117,0.9134155033152821,0.9124998662818327,0.5388867212119364,0.6406722786597132,0.7408830823679369,2.1565753565539527,9.79233594998682
800,N,0,22.29654403567447,0.9901043602580716,0.9903001971324509,0.6266364865305595,0.7002669032664907,0.770275042370659,2.3259952024070993,10.752586665197907
800,N,0,22.29654403567447,0.9795858128401407,0.9863241864621733,0.635931240121992,0.6460192915699468,0.8052148029924385,2.3961283012183814,10.481646956221976
800,N,0,22.29654403567447,0.9685257010067968,0.9610178106775465,0.6648143483555303,0.6034456575717244,0.8358937139385886,2.585376125366703,11.420894513262304
800,N,0,33.4448160535117,0.954171762005914,0.9502417968550103,0.6284495108200324,0.6649571465317405,0.8080791809312201,2.470940285646117,11.08833911706007
800,N,0,22.29654403567447,0.9798069608920824,0.9756860379230159,0.6383182785060895,0.6172171325275588,0.8224409554194589,2.542481185957225,11.049006683057627
800,N,0,33.4448160535117,0.9205428105992718,0.9268172313733087,0.6149159315348572,0.6572890074914683,0.7737379293411913,2.211989961816208,10.594709929495243
800,N,0,22.29654403567447,0.9594009867763477,0.9547405098282807,0.5168749374611677,0.7462761079274475,0.6944945956150372,2.05153016663718,9.927633100884705
800,N,0,22.29654403567447,0.9467200218570067,0.9403273202161508,0.6430920504915997,0.6872479585496969,0.7697737512591887,2.1572497820121015,9.584839293021084
800,N,0,22.29654403567447,0.9759786531283101,0.9747073731944581,0.5970975251656387,0.7402123064447791,0.7097645965725871,1.943860132177588,10.031494958339193
800,N,0,22.29654403567447,0.9779307072627194,0.9712863180650398,0.5950132275716157,0.6805575398037469,0.7369940768135428,2.0992371898947595,10.63152855898317
800,N,0,33.4448160535117,0.8824603269966698,0.8634460948279068,0.6234416169425953,0.611998342288952,0.8092978711173491,2.4678204849602268,11.212639053799533
800,N,0,22.29654403567447,0.9799348570515845,0.9790867889056348,0.6196075165005986,0.6911034685725842,0.7873708631270447,2.3949216698207647,11.01160670318298
800,N,0,33.4448160535117,0.9455032821561744,0.9372089791982193,0.6727506279584494,0.6456457334171861,0.844250034657721,2.4538844823362043,10.07276508944035
800,N,0,33.4448160535117,-0.2645912574699278,0.13539572310255824,0.6395520399887928,0.6789692697472673,0.9233507183169375,2.054040115883612,9.110389708017365
800,N,0,33.4448160535117,-0.21870107388449928,-0.02506272892212037,0.7380263085937571,0.5747530579055602,0.7989027609227831,1.6568694506381663,7.363018216085798
800,N,0,33.4448160535117,0.8501794582404177,0.8478727334675145,0.6735881249464483,0.6019016273019373,0.8309229972837289,2.5962149040269007,11.6456383180442
800,N,0,33.4448160535117,0.9861365243337086,0.9826207537744162,0.6730558397360251,0.5962109345559506,0.8267557190919551,2.4565795073733834,10.568002336679385
800,N,0,22.29654403567447,0.9677620096988412,0.9578871710845419,0.7234840903934817,0.6064577098741795,0.8648107097131034,2.73918280616271,11.697349107455322
800,N,0,22.29654403567447,0.9722961561321772,0.9630278583706726,0.7252475028947276,0.6217024415378011,0.8211024718069746,2.571292229371274,10.985851095270508
800,N,0,22.29654403567447,0.9849802023836468,0.9826952795532482,0.6575872731500454,0.6324847448426982,0.7791555045047831,2.1834747224407924,10.061767266677824
800,N,0,33.4448160535117,0.9660705069162081,0.9575502497187612,0.6407178131623331,0.6331582522327123,0.7817847391428868,2.245040442530564,10.47729918858121
800,N,0,33.4448160535117,0.942989716162198,0.928256958939444,0.7051459164094327,0.5910580147563065,0.8317543432125406,2.490240816525539,10.829683444456268
800,N,0,22.29654403567447,0.9859312381556725,0.9826192600558602,0.6811319153699523,0.6553433591012177,0.8112830962037896,2.5217767610858686,11.100515331552344
800,N,0,22.29654403567447,0.9086562029852181,0.9153625784387641,0.6739940010527774,0.6246724811892381,0.7750818874496953,2.182450725428854,10.479335247176376
800,N,0,33.4448160535117,0.9454687512500267,0.9459884992350216,0.6705756859813538,0.6394667009579399,0.7766242993066258,2.252952475411517,10.761576745945455
800,N,0,22.29654403567447,0.98128689642703,0.9773508752097001,0.7121298677729192,0.6254443525896418,0.831632821787653,2.6132288895290743,11.402452861304496
800,N,0,33.4448160535117,0.9438977983005448,0.9314588298675537,0.7114736739451855,0.6356416090951698,0.8503509547311395,2.5583745917803227,10.80359958009034
800,N,0,22.29654403567447,0.9853110184086676,0.9814282690762849,0.7187683856251028,0.6464594092368113,0.8378991819680652,2.484412280794389,10.568091334333818
800,N,0,22.29654403567447,0.9917762591059327,0.9909373750812259,0.664580302895242,0.7080746256874734,0.8184123766448524,2.599555452473227,11.733396164666344
801,N,0,22.29654403567447,0.9706143133939138,0.9273411455130763,0.3361913041053671,0.5158667624486408,0.15821850501163537,-0.17244920081211954,2.149364484331594
801,V,1,33.4448160535117,-0.3829170138233111,0.15949572172498683,0.2586791150326485,0.3055754028098533,0.5482600560485189,-1.6577221140612797,5.224741760426326
801,N,0,22.29654403567447,0.9533123459978334,0.9001076446721439,0.31309475412566085,0.7000610330056465,0.1786753574347282,0.08368849505912507,2.411466095492526
801,N,0,33.4448160535117,0.9063823077349517,0.8190308986584431,0.3515517020560057,0.6781492809016954,0.24216233928595884,0.09983770215875645,2.9983226426694958
801,V,1,33.4448160535117,-0.5124234180512358,0.15559302818009196,0.3965990779291457,0.3043536899113658,0.6599191568017352,-1.7828312366958126,5.821514068412432
801,V,1,44.59308807134894,-0.6871620226794118,0.42940304923532546,0.5149433019837668,0.22134380732804415,0.39030030152327244,-0.7863766859987722,3.0448917745841406
801,N,0,22.29654403567447,0.9517441785598069,0.9017736569397725,0.32603678162585925,0.6837684894746375,0.21393081467227618,0.021169215138587966,3.010781820879622
801,N,0,33.4448160535117,0.9792835022904328,0.9330315005986991,0.38761239882511805,0.5489519973368844,0.16704607585533854,-0.10026319054990032,2.1110253185531747
801,N,0,22.29654403567447,0.8626546064789796,0.7114361575682678,0.2708064289392864,0.6103768617165674,0.07902359332191816,-0.25835826514894106,2.063351742838241
801,V,1,33.4448160535117,-0.5533377291227257,0.28370210043280814,0.33726972612172507,0.30726569107168944,0.7169301337924978,-1.8752704540668017,6.377179835015863
801,N,0,22.29654403567447,0.9768936130623349,0.9534930622181289,0.31809655536807385,0.6156575970628159,0.1977590184565372,0.061395976211411074,2.7325869549266355
801,V,1,33.4448160535117,-0.3780690959461389,0.10798795224177787,0.2907854442962753,0.3190730576892044,0.641778734897766,-1.879025219496522,6.205390579375707
801,N,0,22.29654403567447,0.95703457775665,0.9162618056601776,0.27988354534299126,0.613846195824049,0.18528290550832352,-0.08152979097770319,2.8206359618176737
801,S,0,22.29654403567447,0.9581326211482982,0.8937758185065859,0.36486229659616737,0.6549091143254933,0.2108124579282627,-0.029552954482694963,2.2479328425736416
801,S,0,22.29654403567447,0.8570047280700195,0.6645117059600263,0.46707584904259786,0.5736245778776242,0.35265820600009734,0.1836032748046556,2.6818875392783363
801,S,0,22.29654403567447,0.9556548223811846,0.893970931697463,0.34495125195797477,0.6210975258835119,0.26069782867731645,0.06354560485638666,3.109732422477724
801,S,0,22.29654403567447,0.9709575962358833,0.9295590745378634,0.21818768894574186,0.4333057007985435,0.08414986352309937,-0.39473437408724465,2.135109213156448
801,S,0,22.29654403567447,0.9905273354088349,0.9730512653385106,0.22760659616888565,0.5255484251497013,0.09222972867314065,-0.38608884080641803,2.239904377587443
801,N,0,33.4448160535117,0.979671556274799,0.9331825529736573,0.19974966534548208,0.3457858441556643,0.07658936147389024,-0.3643570615541634,1.982733963634034
801,V,1,33.4448160535117,-0.3608449061741518,0.1028288029659698,0.20345081514313526,0.25031736394140736,0.49891343576488867,-1.726929441099064,5.3569073193115235
801,N,0,22.29654403567447,0.8764729337391554,0.7709267018807752,0.2979666344544533,0.5814156228822217,0.17062778083504657,-0.079601936136092,2.495121153213264
801,N,0,22.29654403567447,0.8778010180844431,0.7016310267950133,0.39588058609781424,0.7649865322827538,0.1749896452592506,-0.011231026005179633,2.085939633523144
801,N,0,33.4448160535117,0.8449132213198287,0.7088415272521783,0.34199098431315766,0.6516304465125469,0.14011185440178958,-0.18757855395176506,2.001995460383385
801,V,1,44.59308807134894,-0.6241304003355187,0.20824222551578125,0.33293015701405826,0.20649819808313824,0.5134476198764718,-1.155211125329171,3.4935074655369864
801,N,0,22.29654403567447,0.6288026803511169,0.33472978382751023,0.3140775294990489,0.5499321515104056,0.2183539882247343,0.06389022184509488,2.665718010362864
801,V,1,33.4448160535117,-0.6049755748583312,0.29683608027490826,0.4602588916229022,0.2736838469491299,0.5278875034754291,-1.3733516510095742,4.585852190782787
801,N,0,22.29654403567447,0.9520019473646123,0.8961749500305596,0.34689381619586296,0.6325817625181521,0.16482109145738902,-0.16838655944427067,2.44251680479713
801,V,1,22.29654403567447,-0.1983982321814582,-0.05959059718256146,0.21438985813904557,0.22191980823514612,0.18760490962173704,-1.7977753968217767,5.34326510132576
801,N,0,33.4448160535117,0.6959242756811469,0.3606954046139727,0.33483209357927723,0.506452237386032,0.14713015687610867,-0.19277141495256447,2.1163933817116916
801,V,1,44.59308807134894,-0.6552271814644706,0.30395760917864867,0.4232530505630235,0.2585712806937025,0.45862265971541527,-0.9801182920010842,3.1237291878458215
801,N,0,22.29654403567447,0.963820878960111,0.8918872395466826,0.41614667457542925,0.6347422409129062,0.16668180788957415,-0.40961889772244625,2.6162187215517227
801,V,1,44.59308807134894,-0.635461165754635,0.25801636153593555,0.3714822303690858,0.1991046366102239,0.5577439637503712,-1.2114179909155893,3.7008251193243678
801,N,0,22.29654403567447,0.6317531201251585,0.24079145065044302,0.37176522997844097,0.6066367758287192,0.16587442959603918,-0.06381996933926702,2.0434008009271425
801,N,0,22.29654403567447,0.5527080382513775,0.31352332618375767,0.2776446016931922,0.5866832685436755,0.17562809718455025,-0.12699021718816664,2.507789302410246
801,V,1,33.4448160535117,-0.4252002238718987,0.08560656514640028,0.2745739386323003,0.2511903924991147,0.4738660106496085,-1.7599373385480106,5.341544465277829
801,N,0,22.29654403567447,0.9720026062706205,0.9357005677481922,0.31842748354840383,0.7106227859334413,0.137570757614383,-0.20617894672861187,2.190057031491203
801,V,1,33.4448160535117,-0.46768427361044096,0.14791135768126756,0.23816079308314514,0.2879771830151512,0.7561607215736496,-1.9010589859582185,6.2127014640125395
801,V,1,33.4448160535117,-0.16749829887442416,0.04777920554644125,0.35666931590186907,0.35273942683135195,0.5556382242492682,-1.095188606661483,4.238372857938473
801,N,0,22.29654403567447,0.9272291475883333,0.8241198883783125,0.35269655002134,0.540407243632801,0.1991858167964293,-0.18734251396647592,2.342682325380508
801,N,0,33.4448160535117,0.990917205076819,0.9795464193787767,0.3179211066849498,0.5378779476137941,0.12665656183899357,-0.24446982449591567,2.1315318572201516
801,N,0,22.29654403567447,0.9389694988171944,0.8563907651123205,0.36874615042866504,0.5822889001411984,0.1325054832283067,-0.20053323543401827,2.1916102656416143
801,N,0,22.29654403567447,0.9332478257745225,0.7640669230050933,0.45850186160471973,0.5987718348824966,0.20604420607840274,-0.16121839131092838,2.4652503604588683
801,N,0,22.29654403567447,0.9735456768980821,0.9472825646705713,0.30174829231026545,0.6256973122741348,0.16338477839839297,-0.013676089314315666,2.4209054365155853
801,N,0,33.4448160535117,0.984599820253264,0.9495800145077705,0.3836342098257047,0.6066766267739668,0.1834960593232171,-0.1270735224566441,2.0990140881239747
801,V,1,22.29654403567447,-0.3308022684912182,-0.03914317414533822,0.26381558066990907,0.2516954340954547,0.3651527386875378,-2.0487395773523813,6.380249433302202
801,N,0,33.4448160535117,0.8464365722857288,0.68015309793412,0.35263800878891394,0.5316051731858004,0.13320407885954955,-0.25178205507890855,2.0645484260946354
801,V,1,44.59308807134894,-0.5858353828157388,0.18301738576368712,0.3144270737879311,0.2190039900461881,0.5250038755802208,-1.1938473971334662,3.4213943408675034
801,N,0,22.29654403567447,0.9738950595001223,0.9542459213241946,0.26757480831099123,0.6355267885653666,0.152335374137408,-0.25098792804750064,2.6115458458855145
801,V,1,44.59308807134894,-0.5806739512929531,0.2184219743675463,0.35490494084441754,0.19866589128776557,0.4495969635651239,-1.1693627477939004,3.530299677246022
801,N,0,22.29654403567447,0.9784446369886264,0.9479354449390408,0.34964933825936795,0.5344025343352368,0.10969727777313078,-0.2917563278812117,2.0140268397397447
801,V,1,33.4448160535117,-0.35018733043928096,0.017327641642755572,0.27950146915021407,0.25664516156819484,0.49341395954583245,-1.9012043236310467,5.7686468889717535
801,N,0,33.4448160535117,0.9583266514050092,0.9141779487442809,0.2753645903106673,0.6582743396006087,0.19054495968528856,0.1412936580403049,2.5996561197773973
801,V,1,44.59308807134894,-0.5975910199644661,0.2136489787577948,0.34706520984618006,0.19593137459757104,0.502181461002806,-1.2112699641834406,3.6136375076002425
801,N,0,33.4448160535117,0.9893845288712949,0.9531077253939393,0.3860516536108717,0.6154240569952568,0.14891805377808592,-0.21864888279514247,2.1881538418701476
801,V,1,44.59308807134894,-0.6665564220513621,0.3093345546113698,0.39472371280955126,0.2270358152596047,0.4627059167906003,-0.9462300381841764,3.2026154037922563
801,N,0,22.29654403567447,0.9742599734799597,0.9629747197548763,0.34014838871352826,0.714990737914257,0.1493309571238916,-0.21931003352041203,2.2709472867341556
801,V,1,33.4448160535117,-0.40308095203185,0.0747718570813996,0.2808138906213918,0.25592184254736927,0.46898598116657897,-1.7838668809027811,5.532176772070541
801,N,0,33.4448160535117,0.8610060449782297,0.7832144699352145,0.2660068255289298,0.507577268758355,0.10134025697301627,-0.27106048938976723,1.99060584099204
801,V,1,33.4448160535117,-0.6621228945546931,0.3588045994486295,0.4485715884433304,0.2175589054814747,0.4351745726285042,-1.0611576685286612,3.5426648469947772
801,N,0,33.4448160535117,0.5127035214383071,0.19429855952255978,0.29956519176388025,0.6040967013169656,0.17307952544029628,-0.18876630884241985,2.33821839051447
801,V,1,33.4448160535117,-0.5215679927467616,0.21174891467086052,0.4102913442318902,0.23034488841857553,0.3378580410275118,-1.275765146329222,4.048487096214947
801,N,0,22.29654403567447,0.5575905570388261,0.3215115921260642,0.21356004166439146,0.5222539253448218,0.1279810066017104,-0.2736831216948476,2.3894568440691297
801,V,1,33.4448160535117,-0.42387043325851115,0.10942049252522452,0.24929696278543487,0.28146980572778224,0.6213830886982415,-2.11575771814991,7.023972915659976
801,N,0,22.29654403567447,0.9908658509140119,0.9801396092176133,0.31203851393986654,0.6200664679765705,0.1597651804288047,-0.1605721052148129,2.62363075060507
801,V,1,44.59308807134894,-0.6467738086755634,0.2577869604745816,0.35316289642676263,0.21532726634873595,0.5686498680589751,-1.2280584234586016,3.7119048778277874
801,N,0,33.4448160535117,0.9879011203856336,0.970387100195043,0.3227647003018541,0.5514004768990739,0.1584176881139714,-0.20116686123018768,2.1828198310844416
801,N,0,22.29654403567447,0.9813630356911932,0.9436910747473636,0.37516755107682914,0.688979373596062,0.1797955106232193,-0.16876729598482337,2.4360775076929944
801,N,0,22.29654403567447,0.9613746032569267,0.9094272156001553,0.335476111586875,0.6134842927765431,0.17894448532333096,-0.12682044819905447,2.524754250487345
801,N,0,22.29654403567447,0.9594757396921831,0.8331402105216102,0.45572964705355906,0.5400192223459683,0.1364790422304375,-0.3298515542702901,2.084244965341443
801,N,0,33.4448160535117,0.9625008505062711,0.9146587177067307,0.2808571688989018,0.5516570259381336,0.12254536728817927,-0.2895906840015505,2.083494267257601
801,V,1,22.29654403567447,-0.2831559167699747,0.020000607617592314,0.28999805014104335,0.2722669324922853,0.3487873134228075,-1.7161976600801867,5.616682673635363
801,N,0,22.29654403567447,0.9490770321528295,0.8823428584792691,0.23659386723363363,0.5388945728884094,0.11559073772945613,-0.10368275863274437,2.2510281545608275
801,N,0,22.29654403567447,0.9766847459189814,0.9390942617439741,0.3525776118691437,0.48883076550887034,0.11664054699608405,-0.4482813098845326,2.355260316577348
801,N,0,22.29654403567447,0.9322753423114825,0.6804295070796834,0.5211717683842957,0.6620828367535614,0.21518009588645118,0.014924881133002518,2.657534506656358
801,V,1,33.4448160535117,-0.3520519533634087,0.09315967106201549,0.2453000319712312,0.29128942339629,0.6121080912743024,-1.8444090083473834,6.010360289421884
801,N,0,22.29654403567447,0.978325994820461,0.9576095850249846,0.29093191315488576,0.6869412768315245,0.1572434291902524,-0.10427646784641587,2.4937935069509773
801,V,1,33.4448160535117,-0.4420866300169495,0.14509729072514252,0.27557332524634354,0.2629373961604902,0.5827585827950758,-1.753145467864107,5.5643064132413
801,V,1,33.4448160535117,-0.4941198882226501,0.15720376964199143,0.38912456839892934,0.27774723507287563,0.6015720395695523,-1.868123195418813,6.076766725050337
801,N,0,33.4448160535117,0.9889047108621004,0.9788204582793542,0.25185441130367126,0.44017593732728516,0.13171968611388868,-0.2143713889619484,2.452173906549329
801,V,1,44.59308807134894,-0.6276977483530157,0.26258559285088146,0.38044011570222697,0.2154407796568476,0.476684286418786,-1.1824019270704496,3.6342094882805984
801,N,0,22.29654403567447,0.961359800136432,0.9146531781820256,0.32311008012818804,0.5130054343149684,0.12019330423603306,-0.25455753844622686,2.141462988386971
801,V,1,44.59308807134894,-0.6707702669688616,0.3010045118693138,0.39049543678757626,0.22669890157399364,0.5456061711080927,-1.199079236294526,3.7680083531790776
801,N,0,33.4448160535117,0.948173006339297,0.9162973314941176,0.2817299399559072,0.38883613203967193,0.1365757965129858,-0.35829896268759004,2.483574365611154
801,V,1,33.4448160535117,-0.3784052762570806,0.1054022885331947,0.2755715437333194,0.2813671117598485,0.6110453796916204,-1.696934159281468,5.598524026595401
801,N,0,22.29654403567447,0.98435490017649,0.9435550431379036,0.37794888727841897,0.6325906431644797,0.13212257413433895,-0.2778716585012871,2.275054513012231
801,V,1,22.29654403567447,-0.27605836244435616,-0.0034665626956765666,0.32455919624566704,0.2917650115110447,0.38070171376113715,-1.6516325761367472,5.518964333357014
801,N,0,33.4448160535117,0.9705982220380261,0.9529142072821429,0.264190737740826,0.5560982531973083,0.18106435170420263,-0.0885393705149533,2.5516273155836893
801,V,1,33.4448160535117,-0.4713101413469661,0.1706008227761477,0.36661701201872704,0.2905995636103438,0.5482391819805309,-1.4875534043921759,5.123901179083039
801,N,0,22.29654403567447,0.9104826124419236,0.8286407133868117,0.28366798410382993,0.641873931776036,0.09764785841375073,-0.38838061941714336,2.461108346239821
801,N,0,22.29654403567447,0.9767012562782275,0.9393507469122369,0.3634532286413178,0.5598801400677407,0.13677717966673342,-0.3173533903605521,2.246694270035652
801,N,0,33.4448160535117,0.9790596619872268,0.9542618752888412,0.3191251532103103,0.5804603517720454,0.16551597119486178,-0.2241427483629187,2.776480219245618
801,V,1,33.4448160535117,-0.4762481702780094,0.1548596453193996,0.4129776713799714,0.289419506490349,0.600939187697779,-1.6452214136241825,5.4320026360480265
801,N,0,22.29654403567447,0.9508300474612659,0.901682515716998,0.29364554639073276,0.5146711404597106,0.11749493935665425,-0.23933662408588716,2.1158006381143406
801,N,0,33.4448160535117,0.8236110050232622,0.594884075606555,0.41858389204712865,0.6284436098157167,0.16331518674158407,-0.09275282657620885,2.1699015014553455
801,N,0,55.74136008918617,0.15586326853824367,0.12867267629459242,0.3727445668336443,0.7391018758492212,0.27393652186050216,0.009313423278098141,1.963970427568314
801,V,1,33.4448160535117,-0.5249150108770272,0.20744599974054015,0.38868064807675545,0.3345451874028519,0.6978791765203792,-1.7497293713854323,5.890955592978648
801,N,0,33.4448160535117,0.9690478198822525,0.9332815491506496,0.31852435515576166,0.43095926203462853,0.14817675678871758,-0.2496905841460282,2.402713795758824
801,V,1,33.4448160535117,-0.4596207700386432,0.11268538463827155,0.198944312087039,0.24680318056554096,0.6125508604296989,-1.9460010967006272,5.944611791533897
801,N,0,22.29654403567447,0.977630330409991,0.9369978697745712,0.21373063687656516,0.7532650991831357,0.10383361774668275,-0.15725324232875826,2.253371696190333
801,V,1,44.59308807134894,-0.6572593625981119,0.296801647221763,0.3732690995364308,0.21137787352816395,0.5945545851680195,-1.2385391540602901,3.836919460160544
801,N,0,33.4448160535117,0.9660643484475142,0.9306197373303542,0.19267731182654424,0.6231428642263349,0.10150696963061365,-0.3137587194895989,2.3474572430451635
801,V,1,33.4448160535117,-0.4079834818694019,0.12325973478478201,0.20744061973498948,0.2786702567431497,0.6372129406104158,-1.8873510217330556,6.018877127674604
801,N,0,33.4448160535117,0.9352996173322605,0.8524223303747037,0.34850725074357236,0.5941726997896883,0.1987633142471837,-0.14223945253754702,2.6522635754320367
801,V,1,44.59308807134894,-0.6941725329964405,0.34105205585239645,0.40275876797610616,0.21673350304982342,0.6253177544476308,-1.265717036901041,3.9356349144252807
801,N,0,22.29654403567447,0.9422817537483841,0.8757351634579192,0.36688897743729343,0.6034974533929442,0.20812914245586894,-0.10584774204783627,2.5686050225731862
801,V,1,33.4448160535117,-0.6455013782599924,0.3101816199929818,0.4152170403060478,0.23527665560128297,0.5311294307803633,-1.298814095343258,4.3145694513903425
801,N,0,22.29654403567447,0.9828203663851686,0.9603334012555967,0.21084064765015084,0.5207580821446601,0.12556642673151824,-0.2112655889289925,2.413650520776334
801,V,1,33.4448160535117,-0.49644639945339225,0.24073798284020917,0.38425479812570823,0.3174347538522316,0.5825686300124259,-1.5922030394878792,5.454522955630748
801,N,0,22.29654403567447,0.5516945377100164,0.2577882352426138,0.3612459811016499,0.6680274588239712,0.17009047054269757,-0.16731011411188224,2.4095908202877157
801,V,1,33.4448160535117,-0.5452686496559366,0.1771690491845722,0.3376742169231506,0.2071904279952378,0.4103363719195222,-1.3854854376066923,4.234329386899742
801,N,0,33.4448160535117,0.9036068158927708,0.8102459091069496,0.34725740431845226,0.579595191034573,0.3235309229435353,0.3775719465501577,3.5113448120131414
801,V,1,44.59308807134894,-0.7096253762223517,0.4159370060700357,0.4670289919101626,0.22380683062387496,0.5308261206302161,-1.1475651692768185,3.8017655621222137
801,N,0,22.29654403567447,0.9198361446161092,0.8917109296532889,0.2907985013753277,0.5331133812766738,0.13372998883966514,-0.3018229318363957,2.368908642105518
801,V,1,33.4448160535117,-0.4315151192672975,0.13790622105247027,0.23276581116482423,0.27684205472125756,0.6044249009551302,-1.8425715284991069,5.929443567783916
801,N,0,33.4448160535117,0.9871264636557812,0.9766969127770811,0.31446481753172384,0.40852372593361896,0.1122570136274306,-0.36402137209153684,2.2857357463417616
801,V,1,22.29654403567447,-0.1832566714285222,0.018835958995596834,0.188574432549978,0.3123389691894036,0.48326688665506623,-2.0077707159283396,6.655994402964224
801,N,0,22.29654403567447,0.9862892680200032,0.9637473710203622,0.3478074936193461,0.5834843798978799,0.11171425703719626,-0.21823559318148777,2.0219800143193956
801,N,0,22.29654403567447,0.9797523010626519,0.9540863640922514,0.34535927993295784,0.4825898663291395,0.11994111221002948,-0.14526771067663338,2.0181767919468103
801,V,1,33.4448160535117,-0.48630317572948173,0.16703573660584264,0.3819105186097333,0.2796888518525734,0.5297276852849133,-1.6703494655489768,5.566308620312266
801,N,0,33.4448160535117,0.9315407953539765,0.8759171413585987,0.27965877760117264,0.558846481130825,0.14091055117760734,-0.351038421850394,2.5130699548616993
801,N,0,22.29654403567447,0.9744109468258231,0.9570538311587411,0.30163025910989494,0.5090402691823908,0.14663768741509997,-0.2777154968304042,2.4373614340721894
801,N,0,33.4448160535117,0.986504919226034,0.9665066968544374,0.3421548367718284,0.5055802266209232,0.1586991544954604,-0.2066805166694512,2.267449340146514
801,V,1,33.4448160535117,-0.37508132075573886,0.09851784132724595,0.2606715328141712,0.26708251129174526,0.5475546569398121,-1.7552060404758487,5.721559367476256
801,N,0,22.29654403567447,0.9138674463266314,0.8367993721090794,0.25245013153216056,0.4843805710828453,0.08170256049778737,-0.3734436045495226,2.1194750460127816
801,V,1,44.59308807134894,-0.6565708101176738,0.2956413834050203,0.3921487289093388,0.21660896271904817,0.5874213164500536,-1.2900701246490178,3.9271008313068925
801,N,0,22.29654403567447,0.9232705048190859,0.8608336196684546,0.3149986092395462,0.5363660668366369,0.14153251917828194,-0.4570957767981104,2.7929531092251048
801,N,0,22.29654403567447,0.5129417649875995,0.18684126423928096,0.4102403485550236,0.6341538860909774,0.23709706930414734,-0.04346026704666805,2.629656592900291
801,N,0,22.29654403567447,0.9147895438973367,0.8185350912710211,0.31039443866880995,0.6056710178762825,0.09879284815863967,-0.23052602437417719,2.057720812996511
801,V,1,22.29654403567447,-0.36757167530092105,0.10482119289783758,0.3206808489039868,0.31134778515398254,0.5192851758231392,-1.786268151002065,6.173614660439487
801,N,0,33.4448160535117,0.9855817600812091,0.9710098113996605,0.3129710608724848,0.511386811229038,0.18106164262352548,-0.0993415968544648,2.5328988283742833
801,S,0,33.4448160535117,0.9609548278992355,0.912112438229144,0.2757314156220195,0.5459058628615602,0.14378383601260045,-0.2695661104831794,2.3777632130034343
801,N,0,22.29654403567447,0.9363990075200186,0.8786969737452998,0.2715521096081577,0.7199363823457514,0.19236628562992678,-0.04854284660489549,2.952110883899275
801,V,1,33.4448160535117,-0.524850657339169,0.22857734831003199,0.3354901020412532,0.3228692630438179,0.7195808977837812,-1.606525145002171,5.530694331663087
801,N,0,22.29654403567447,0.9370894259640217,0.8478634501206347,0.37366074553081535,0.6201482729515317,0.16012332607501006,-0.16365024982512907,2.326567716965247
801,V,1,22.29654403567447,-0.25689450600399594,-0.005837613154571615,0.30706451716193894,0.3036309464714171,0.3414336206765264,-1.7129498644616414,5.754725017458463
801,N,0,22.29654403567447,0.7150771678365332,0.4248117637267431,0.2792346847442392,0.5698098264814413,0.15328773465416398,-0.24223750658762763,2.5583071988067867
801,N,0,22.29654403567447,0.6757360484014264,0.21921601876285093,0.45840011780735695,0.5754686870938868,0.19836189365423362,-0.18631931756074022,2.340543040816032
801,N,0,22.29654403567447,0.458047656383557,0.20284322934852994,0.30754763725493756,0.8960928161864419,0.16355288456406772,-0.19120243971604786,2.403174688530463
801,V,1,44.59308807134894,-0.5903893500543652,0.23014074738251308,0.33603933148686993,0.31009583917696726,0.7151413896505044,-1.63038512217697,5.2644928958535235
801,N,0,33.4448160535117,0.5233653589940361,0.2321096326512874,0.42098098912990434,0.4642713981757749,0.19778008707537026,-0.21281625907120355,2.3459327913769625
801,N,0,33.4448160535117,0.9697555545805155,0.9468885894398678,0.28300052597349545,0.3332158784136956,0.06647932185885137,-0.5475801837802394,2.102093523144481
801,N,0,33.4448160535117,0.9377907992561118,0.9122516483401726,0.246355621091108,0.46983107739926877,0.08577668909895673,-0.4681650106204468,2.128284900273441
801,N,0,33.4448160535117,0.9021956221415396,0.8885219850519951,0.3146133145657471,0.5980618159833285,0.15246373843376382,-0.39196423250570006,2.606242391480139
801,N,0,44.59308807134894,0.6158138180657463,0.39315520629108575,0.22556640481886706,0.4280313929429728,0.09901869710957274,-0.5361442542454452,2.198905763156919
801,N,0,22.29654403567447,0.6844582986972572,0.4665564423664153,0.20574288225326684,0.6520649711643315,0.10045827840441203,-0.4906495932397485,2.4627054027807933
801,N,0,33.4448160535117,0.9121337525857321,0.9062311290554339,0.26942779812328044,0.5319620259044349,0.09974770276014869,-0.55957341824078,2.474937551789116
801,N,0,22.29654403567447,0.9289634504723214,0.9189099053247665,0.23997868085717028,0.6695493166025531,0.10030546916926447,-0.5190478530817957,2.5941832425312255
801,N,0,22.29654403567447,0.9230539426475163,0.9044227933812,0.2872567105506674,0.5785197864604682,0.09974083834572521,-0.46460337101508903,2.2913495827488135
801,N,0,33.4448160535117,0.8674680520940876,0.8372054404445771,0.3648537233956229,0.567462058507319,0.202432070008969,-0.2757857270130767,3.0787754596568244
801,N,0,22.29654403567447,0.8501982323382669,0.825394778419239,0.347244538824296,0.5956342112728958,0.1532626107188849,-0.36692933467434546,2.5802647404828054
801,N,0,33.4448160535117,0.8676440530601308,0.8357689200587094,0.3510955999384001,0.5097709783459752,0.15172382362368986,-0.3627314429625692,2.559442254089392
801,N,0,33.4448160535117,0.7651824510723032,0.5723762563112545,0.252757906092635,0.5341552713252804,0.13304783372235293,-0.47295408501407754,2.460016087625034
801,N,0,22.29654403567447,0.8789395750576007,0.8463875644790662,0.22437848772806676,0.6223651489600603,0.08955335479717509,-0.42043732945459883,2.3761564769073953
801,N,0,33.4448160535117,0.8552113245817438,0.8132215696706273,0.2502164809534587,0.49409542329756273,0.12328986578053351,-0.33671257938973376,2.5300646051564475
801,N,0,22.29654403567447,0.8214956758542392,0.7753619590098079,0.3402968484608448,0.4987846460240052,0.16632600546122123,-0.2682951145294713,2.644017417058588
801,N,0,44.59308807134894,0.7671670597141383,0.5652592533951714,0.2669491640257441,0.4903846704372627,0.161161653663797,-0.3639226849015696,2.4479554148730296
801,N,0,22.29654403567447,0.8669244304067325,0.7990707316397132,0.25042339815345854,0.37569075575373057,0.09606185277508078,-0.4141629481537051,2.232910984009196
801,N,0,33.4448160535117,0.8487360145798475,0.7854973064768322,0.2956238996379879,0.5497442572827017,0.11913706856932318,-0.3723019854679283,2.383504106788873
801,N,0,22.29654403567447,0.8532254932030696,0.7745421158351573,0.22082095727059964,0.5876943189496378,0.10047641968120974,-0.39755387651819685,2.3985995200218917
801,N,0,22.29654403567447,0.855961543861264,0.7998653102608366,0.2688774481443843,0.45322153005350896,0.1166323151059671,-0.38000172057303017,2.3720058143983853
801,N,0,33.4448160535117,0.8608133685853058,0.7998598486718259,0.2670380065466846,0.575846147335252,0.11984643887250875,-0.3609018187208394,2.3785020077155026
801,N,0,22.29654403567447,0.7755351337857634,0.5769181497784069,0.2696070271107383,0.6479902147709797,0.15175808959550102,-0.3135058781593572,2.510171941932648
801,N,0,22.29654403567447,0.7855800299393227,0.6015170848059437,0.21621857997791424,0.5255731807054875,0.1382832471765799,-0.27994394346875234,2.717145957793245
801,N,0,33.4448160535117,0.7246300541372773,0.5022646418560996,0.29740698020992856,0.5726736124861683,0.19867983372142478,-0.1963575406555996,2.641974655519511
801,N,0,33.4448160535117,0.8298988270461181,0.7199466698799718,0.27849598837912865,0.5910093119216375,0.15313294940048258,-0.347396463150959,2.668747331354465
801,N,0,33.4448160535117,0.8151494584131529,0.6952442195572862,0.2780910737035032,0.48390579332149514,0.1383968046681901,-0.3897951812738991,2.5407740249628508
801,N,0,22.29654403567447,0.8412087314348085,0.7568425265886324,0.27845257974091714,0.5131271036626783,0.1293250417334082,-0.2840700695528148,2.322905330348462
801,N,0,33.4448160535117,0.8798016290683738,0.8169196801103208,0.28072360244157957,0.4647890163755358,0.14113284264174647,-0.3015003060012521,2.3923824796793727
801,V,1,33.4448160535117,-0.49004626543032437,0.12715205674001812,0.3182693849094937,0.2326148307636654,0.5104600797815942,-1.67260777778204,5.185994522659747
801,N,0,22.29654403567447,0.7296763322231464,0.5831235847563415,0.3012311396839519,0.8156524324485818,0.14766920456333182,-0.19078955786413102,2.5357011642568907
801,N,0,22.29654403567447,0.7828832048362471,0.6566659511088005,0.25749086949863914,0.7331001204015375,0.11727070487551122,-0.30703449497574997,2.3809790275577067
801,N,0,33.4448160535117,0.7604299917337042,0.6171786980620458,0.2808556996631303,0.46747568843946763,0.12810407409058905,-0.32399872457527834,2.3683980471440766
801,N,0,22.29654403567447,0.7464070381141565,0.5873092654965832,0.3069569645512004,0.5426861693572067,0.18931407088069452,-0.1082260428863306,2.8530670866847307
801,N,0,22.29654403567447,0.7784188373558765,0.6279742616852294,0.2526709270498611,0.5725271606542894,0.10157640697816978,-0.31153595368217923,2.2388822102691925
801,N,0,22.29654403567447,0.7823172821247497,0.6433320067272735,0.23218955337266178,0.5841014198539634,0.1123200462214711,-0.28012367890477446,2.34216927951831
801,N,0,22.29654403567447,0.7813192111946363,0.6290103794418666,0.25763006317192766,0.697160561693577,0.13265045109861687,-0.2333903823725614,2.401217048907504
801,N,0,22.29654403567447,0.8085103406493483,0.6757647673314479,0.23281963861392677,0.5143787820779255,0.09802165251942774,-0.28721642000809083,2.115577339219128
801,N,0,33.4448160535117,0.8129120897179113,0.6819160296644953,0.2537128446707384,0.416053214689852,0.11957543835448177,-0.27545282855205133,2.2523315666506107
801,N,0,33.4448160535117,0.778564008883465,0.5920865383756787,0.3086768545220601,0.7607471633631671,0.20911805728848626,-0.11464860112127773,2.8745152014417696
801,N,0,22.29654403567447,0.7716635025981025,0.48209539049527594,0.3726842363060751,0.8320463763603642,0.2200371656221039,-0.03679472930039228,2.7413443293956945
801,N,0,33.4448160535117,0.7104982749965679,0.40139605770180914,0.3977474592706372,0.6914565865971732,0.25508274413550613,0.03490257017655017,2.890879199954159
801,N,0,22.29654403567447,0.7726787825471677,0.5733313962393142,0.3496733432601539,0.8692601187645321,0.2686399212032739,0.14992040122236064,3.5603386332993656
801,N,0,22.29654403567447,0.7806916573219148,0.5985432224636115,0.2627241381010334,0.8011144023188843,0.10774760244541993,-0.27439214768469283,2.2350537176677245
801,S,0,22.29654403567447,0.6832713772461851,0.4018632945617412,0.2918395426715872,0.6415139192410986,0.23225493545049172,0.092693276005553,2.8105474347187176
801,N,0,22.29654403567447,0.8173431766274799,0.6526547839222371,0.3202596752473982,0.5345678342496256,0.28658058781890855,0.3213668034494088,3.407055033648855
801,N,0,33.4448160535117,0.8692092811041882,0.7148335271137701,0.29257573281489396,0.7621011501221394,0.1762214576595681,0.06299352970358527,2.644414493365108
801,N,0,33.4448160535117,0.8606258851182347,0.7401487817191119,0.2393884717779599,0.3858326994550159,0.09194935651105411,-0.2941004450221058,2.1004421091677754
801,N,0,33.4448160535117,0.6964686287174809,0.45382353137973763,0.30431772682905994,0.7091003322426375,0.252174786696223,0.2521596377611369,3.209756264978159
801,N,0,33.4448160535117,0.8052364268347159,0.6253975004840705,0.2893327336320596,0.7743444789754091,0.1804775520897594,-0.10079641203273507,2.7332610271726367
801,N,0,22.29654403567447,0.7848150811137724,0.6041884618581868,0.2819683655567855,0.713834233953388,0.17896395457515307,-0.03145175429437955,2.907904102380029
801,N,0,22.29654403567447,0.7615279206873706,0.568293720706913,0.2663145748528342,0.6035854058173828,0.14093529515490014,-0.23757562447612016,2.55856208380446
801,N,0,22.29654403567447,0.6680560608205828,0.27892242222476776,0.44606710019956797,0.5878325414578096,0.3738448215549711,0.49050477120934954,3.4059225609936954
801,N,0,33.4448160535117,0.7795217580168183,0.6137350900055001,0.24751833357716777,0.5309005074023732,0.13659679141770018,-0.21467113331401305,2.4243247287199226
801,N,0,33.4448160535117,0.7954355457085494,0.6094308807941459,0.3182249603951769,0.7145497220124477,0.21414193380022842,0.058459156333194824,2.5357618618507405
801,N,0,33.4448160535117,0.7323859806187155,0.44805051423328335,0.4438845858871199,0.6615620454896328,0.3479803166646339,0.2095117351941363,2.9173398855582624
801,N,0,22.29654403567447,0.7492554912106032,0.6012568005692845,0.27755624830487613,0.9317057280384068,0.15903601701510012,-0.052736841388433355,2.576833225402168
801,N,0,22.29654403567447,0.707081318002002,0.4586029171550057,0.3853529029849445,0.7010515935006448,0.25134517199989515,0.11585274530554002,3.215329305549382
801,N,0,22.29654403567447,0.763784620440253,0.6016631283712367,0.29863317521195776,0.8336221109309534,0.173642728233182,-0.03578662750346361,2.7192851017849713
801,N,0,22.29654403567447,0.8358215954281826,0.5895055244512957,0.3830142715460006,0.68642632465685,0.3000187436064732,0.06594990179170568,2.9492295002376245
801,N,0,22.29654403567447,0.8012271590764606,0.5620532843519921,0.29679347063027917,0.6555620190998761,0.20821673763217927,0.09821922223718206,2.7113031967164374
801,N,0,11.148272017837234,0.7841732034133813,0.5822951117193149,0.2715031453666121,0.7996172361178152,0.19172786517113066,0.097206980756259,3.282734299647801
801,N,0,22.29654403567447,0.7571960002595789,0.6052568103889286,0.24820698572144256,0.6941642429458597,0.13749521508989268,-0.09611494408162208,2.502707906686502
801,N,0,22.29654403567447,0.7218176106597672,0.5330515630813963,0.29873360414664285,0.6602464992876776,0.19299636910846849,0.07976645162275522,2.831859063738929
801,N,0,33.4448160535117,0.7566580711181929,0.5264172122722515,0.38860501452418544,0.6651319022935804,0.27391476936895215,0.28596100531625424,2.7747985114101206
801,N,0,22.29654403567447,0.848664137874573,0.6501073890928558,0.3080539513754272,0.8759817369068369,0.22248923557697553,0.0304325346301278,2.439879471818508
801,N,0,22.29654403567447,0.7952158424247453,0.5304017046357914,0.37203257392987704,0.5888734473201374,0.30711279410030695,0.20647214035222264,2.9310317815970715
801,N,0,33.4448160535117,0.6992494741627893,0.19027102161707846,0.4174006965392587,0.5521544379506992,0.22424846985959002,0.07398682900206743,2.1838726777309083
801,N,0,33.4448160535117,0.7512050532247124,0.5971675443523098,0.3506134924012991,0.8723864200690404,0.22161181783927714,-0.010065219845614357,2.5789625876815467
801,N,0,22.29654403567447,0.7877172837782178,0.6374235024728236,0.3116550081697604,0.64008299819061,0.1821970217955409,0.1021668395847354,2.398747124411791
801,N,0,22.29654403567447,0.7456032892327379,0.5954160065547133,0.30934955253375074,0.5636615389040406,0.1934665837097719,0.03974379596384953,2.804429686599758
801,N,0,33.4448160535117,0.7863510964143713,0.6265578062144739,0.32441249370485153,0.5721348001354443,0.17875863736219444,-0.009146611544942852,2.2444068780113517
801,N,0,33.4448160535117,0.8018109585004387,0.6591202449695188,0.3070332985786572,0.6907073014746351,0.25843759116194265,0.343237166508612,3.042127239236942
801,N,0,33.4448160535117,0.8227284951560107,0.6699696784975859,0.2801189483846429,0.6659469269383945,0.15507851893596128,-0.06720923858355077,2.2578432550220047
801,N,0,33.4448160535117,0.7866815256988486,0.6178594250243625,0.32422387804940334,0.5039365537212102,0.1853043098371005,0.0382632572599898,2.4583120948312134
801,N,0,33.4448160535117,0.8017217993182078,0.6356763829202786,0.331669346837175,0.7075255095746803,0.19377523534643837,0.010940147497133009,2.3226020776542264
801,N,0,33.4448160535117,0.7943830578725395,0.6325052106728193,0.2743315884873177,0.6583469110455775,0.18861671108571976,0.10790984888551423,2.4471677832403844
801,N,0,22.29654403567447,0.7346570211125941,0.5194474609757337,0.33974282433928277,0.7214413166416311,0.22959182841258355,0.17518135601731247,3.0749601304323595
801,N,0,22.29654403567447,0.7846681528812157,0.577257316955679,0.33874493988982124,0.7102127432797316,0.2182565440155394,0.23356261191432026,2.6085864659805953
801,N,0,33.4448160535117,0.7425685656950872,0.5458926152785596,0.31827487369796054,0.6969787180493507,0.2101119821837312,0.07744224722719616,2.622693756078852
801,N,0,33.4448160535117,0.7806131981609197,0.6065404668485752,0.306178155540371,0.707645290580627,0.20893859197059966,0.20045017249697342,2.557036953681103
801,N,0,33.4448160535117,0.7433737044378491,0.5159739310487795,0.4044168647037369,0.5392431347792952,0.31571898173130686,0.35668824218991896,3.089940481041619
801,N,0,22.29654403567447,0.7299380229846224,0.5420869007694826,0.35057690789281853,0.5955773841683925,0.33591857945115255,0.6095949427728949,4.480368231124664
801,N,0,33.4448160535117,0.7636662925527306,0.5939020242464811,0.27529509906869143,0.6577509892143493,0.16654266648782012,-0.07328054616481419,2.420846984027239
801,N,0,33.4448160535117,0.7794352364580005,0.5995991774377734,0.2826933708921562,0.5253723668788037,0.1849967025752779,-0.04208556658332096,2.7085197328845525
801,N,0,22.29654403567447,0.7636361453825523,0.5864297830661883,0.3201416213476153,0.6087933135354512,0.2762208328375049,0.3646287792567827,3.433116774797817
801,N,0,22.29654403567447,0.7651256606595755,0.4380174850068677,0.4665393872683093,0.5609703908238495,0.5470590803582562,1.4234814976896808,6.341309939585754
801,N,0,22.29654403567447,0.7632546599649043,0.5502366514353467,0.3411588191719721,0.7355197172827098,0.2793635759573623,0.4292991348210542,3.63108731447825
801,N,0,22.29654403567447,0.7380323282670009,0.5471163718830396,0.2873821050361486,0.8274041123770098,0.19770698702068365,0.0736810774798962,2.9728767713955446
801,N,0,33.4448160535117,0.7991178485896789,0.6732488181229361,0.3556752888861613,0.7128053686925502,0.21522274793891288,0.2770038760097587,2.3229115731317647
801,N,0,22.29654403567447,0.6675881093327627,0.3846369356912286,0.44469959137930865,0.6653807288354209,0.5069193287986852,1.059589399542725,5.573237751539136
801,N,0,22.29654403567447,0.7080930383549431,0.46259293823876274,0.3879382760785328,0.5880539564098177,0.47776920252650334,1.2993874376998218,6.751913671925005
801,N,0,33.4448160535117,0.8126011976467516,0.6433122642822872,0.32870036016599763,0.4632426495753076,0.21378923561333912,0.13541010553661667,2.5160830053843672
801,N,0,22.29654403567447,0.789974440838428,0.6286202106306142,0.2803854607975164,0.5846813344504249,0.19746769240643286,0.13856738789236314,2.7185096984856822
801,N,0,33.4448160535117,0.7627380318035696,0.533723974502036,0.3510712991936923,0.6538188227688614,0.2796208735920455,0.3839792618574521,3.058030766152565
801,N,0,33.4448160535117,0.7656285569919938,0.5939767328849158,0.3155798927590084,0.6852443007830916,0.25171161912127693,0.3757295123396568,2.9831633591160385
801,N,0,33.4448160535117,0.7851544979218645,0.6198852265587617,0.28958979856921413,0.744952203274824,0.18620201312366158,0.10879167980446408,2.4486378899817294
801,N,0,22.29654403567447,0.7634977541543033,0.6173672445744418,0.29428669141462543,0.7401316110927272,0.19409720581114165,0.22862823596634782,2.820043215552828
801,N,0,22.29654403567447,0.7796568465871409,0.5869485259851102,0.32766622728878003,0.8602953354537979,0.3434642231673402,0.8209404493754857,4.7138952495114355
801,N,0,33.4448160535117,0.7746275716416297,0.5775698358858024,0.3819282699521547,0.768597432502027,0.35688049694949553,0.6805651479525249,3.7503654556794688
801,N,0,22.29654403567447,0.7748844991373164,0.5296787800988145,0.4113579457502041,0.9034409376139957,0.46788042192209733,1.245913492886647,5.535376678224799
801,N,0,22.29654403567447,0.7488488958655347,0.546036622592225,0.3788114123019255,0.5608054400849434,0.34961087343261543,0.6240789879293368,4.21559449023627
801,N,0,22.29654403567447,0.7833267048868324,0.6290423750342202,0.3385800902955856,0.7489057110761125,0.2992674110272122,0.5680013294826785,3.926094126030839
801,N,0,33.4448160535117,0.734718774323602,0.5404381495055258,0.41626623487050846,0.48694127371059726,0.3947594728401574,0.8120146659137571,4.485135859524428
801,S,0,22.29654403567447,0.8222362711602369,0.7220409032783504,0.35742023138059914,0.6275120436060884,0.24685192622787144,0.3859122745329221,3.1248327707987547
801,N,0,22.29654403567447,0.7840099173988563,0.647896722552464,0.3517039885546949,0.6491672572576622,0.28657128374647994,0.5035851539999038,3.5105004236390953
801,N,0,22.29654403567447,0.7869055163086538,0.5945656487570277,0.37172854862913185,0.6219057123354572,0.32997837260495344,0.5722266760890623,3.432786085804345
801,N,0,22.29654403567447,0.7816951756880426,0.6201318087190104,0.3353444488323653,0.7313570321877567,0.23854697270624992,0.31517000894776603,3.1054925813121237
801,N,0,22.29654403567447,0.7869520722194623,0.5653447605582994,0.3484081879412046,0.7173132298055922,0.27685391123639236,0.4345248267861554,3.3145636138898475
801,N,0,22.29654403567447,0.7521994007424997,0.5574249891550231,0.33649378642332445,0.6536686323869525,0.3008210706085122,0.5279939052394736,3.8252591308715913
801,N,0,22.29654403567447,0.7720716026450941,0.6046976427596515,0.33895278280669944,0.5912326169942737,0.23805554249735494,0.2083616644495749,2.93583419245883
801,N,0,22.29654403567447,0.7647355326478904,0.5756583087293553,0.3697491626494984,0.5493862562667422,0.2849447870253456,0.3633498571726277,2.991178365580701
801,N,0,33.4448160535117,0.7863671629414848,0.6018210174264137,0.37187924628786134,0.6424726303550666,0.29892447501153757,0.4356525420806447,3.1014817232271583
801,N,0,33.4448160535117,0.7396165575983877,0.4463955305429664,0.44758934624937013,0.7778521572818633,0.40277094793465995,0.8457047287966507,3.901773198809832
801,N,0,22.29654403567447,0.7853895599504294,0.6230301836294355,0.36194895672891475,0.5344957015300666,0.266283960675367,0.34631134397400676,2.786124898332638
801,N,0,33.4448160535117,0.7608591408933241,0.5938145723549615,0.35777897340291476,0.6853137991257741,0.2123843295267376,0.1603829909186827,2.285347428408545
801,N,0,22.29654403567447,0.7619400851961899,0.5782557154603646,0.3388792543422476,0.819714663807479,0.2563694483245242,0.3486291753302636,3.0623336362138396
801,S,0,44.59308807134894,0.731763831354133,0.4007445767142699,0.33609155310933886,0.6172897196381416,0.33067691632526514,0.348967826760978,2.6085575041411926
