record,cls,y,qrs_width_norm,template_corr,template_corr_abs,pos_neg_ratio,slope_norm,energy_conc,seg_skew,seg_kurt
100,N,0,16.666666666666668,0.9886865380251003,0.9890400067517566,0.8508090614886733,0.2991452991452992,0.8903789693922315,3.9693569715479278,20.291008064718547
100,N,0,13.888888888888888,0.9933738209018367,0.9930826311317267,0.8143100511073255,0.32098765432098775,0.9184292754316788,4.302881830219718,23.16421168781307
100,N,0,16.666666666666668,0.9946866232005199,0.9949192950467598,0.8515806988352747,0.30620155038759694,0.9386148225439388,4.235863697610885,22.08012226988801
100,N,0,16.666666666666668,0.9905989872139328,0.9900996564918264,0.8580020046775808,0.313953488372093,0.9420161283421239,4.248781766142848,21.920996541292514
100,N,0,16.666666666666668,0.9925675193287945,0.9920811220421341,0.836741767764298,0.3305084745762712,0.9128755320000418,4.1480378997629845,21.917792742457483
100,N,0,16.666666666666668,0.9913671023818713,0.9909471696118237,0.83261231281198,0.2971887550200803,0.9388313493761825,4.096876716943487,20.799528044695492
100,N,0,16.666666666666668,0.9912960115900159,0.9916781814762471,0.8342956120092377,0.28947368421052644,0.8996777453095556,4.067912541463842,21.091031438042375
100,N,0,16.666666666666668,0.9942057712302622,0.9939692846535575,0.8427137207179799,0.290566037735849,0.9280841485355594,4.128759220338397,21.13257827354598
100,N,0,19.444444444444446,0.9932103572843829,0.9935084356229608,0.8501026694045174,0.29496402877697847,0.9336839414017792,4.093228574773217,20.940405826233334
100,N,0,16.666666666666668,0.9899110345859689,0.9902303038140027,0.8788124156545207,0.303754266211604,0.9297252732191467,4.121366950709655,20.89041203016353
100,N,0,16.666666666666668,0.980278259164032,0.980403643485538,0.802355187778485,0.31075697211155373,0.9359129912326242,3.9226931599752235,20.29039039675241
100,N,0,16.666666666666668,0.9892876757111082,0.989161299790829,0.821673953778888,0.31048387096774205,0.9115579250649493,4.073000389516862,21.023309412443176
100,N,0,16.666666666666668,0.990865051256324,0.9909234010836684,0.8126934984520123,0.31174089068825916,0.9145804422240722,4.072586869368994,20.968573052034973
100,N,0,16.666666666666668,0.9967989780625163,0.9970343645656093,0.8564993564993564,0.31558935361216733,0.9296955364730086,4.233913141486856,22.39632424439541
100,N,0,16.666666666666668,0.9912835181085483,0.9911518345133016,0.8753263707571801,0.2834008097165991,0.9138218634861086,4.08800164969571,20.963392976623005
100,N,0,16.666666666666668,0.9907036408289027,0.9913442212459194,0.8499377334993772,0.31355932203389836,0.8738070307654344,3.9425327583659295,20.555058509963324
100,N,0,19.444444444444446,0.9927113420646597,0.993301966901132,0.8440450807188548,0.29166666666666663,0.8938097203748722,3.914718281310685,19.76594096041391
100,N,0,16.666666666666668,0.9848364838942173,0.9852272332889339,0.8355437665782494,0.34050880626223096,0.9293206519183564,4.303410759468185,22.98194895796091
100,N,0,19.444444444444446,0.9962823355956024,0.9962855581629253,0.8573687539531942,0.30859374999999994,0.9303529503399317,4.106599826811129,20.917540461553433
100,N,0,16.666666666666668,0.9915720163815577,0.9913633919840744,0.8525390625000001,0.3268482490272373,0.9220319579966918,4.210865059144392,22.294117829440584
100,N,0,16.666666666666668,0.9891706103372226,0.9888845893542813,0.8561195889131111,0.32539682539682535,0.8903678272763157,4.062119099479306,21.197130334689895
100,N,0,22.22222222222222,0.9723526404687391,0.9774217811040774,0.8553891480481217,0.20664206642066424,0.8980102039709115,3.59952635417079,17.052533677589743
100,N,0,16.666666666666668,0.9904756682554321,0.9907829706708976,0.8668831168831169,0.31060606060606066,0.9188940435707611,4.192127703239883,22.175383686265473
100,N,0,16.666666666666668,0.9959854020616986,0.9962647162391091,0.8462488422352578,0.3235294117647059,0.9334629554357141,4.231101267364802,22.044987818203982
100,N,0,22.22222222222222,0.973411603618862,0.9742210032002573,0.8659054699946892,0.2723735408560312,0.8978888975245795,3.6377544075937385,17.31374247458976
100,N,0,19.444444444444446,0.9886579672925062,0.9903039781930784,0.8531767218366257,0.2798507462686567,0.9165632740036254,3.837319306542851,18.660048110989436
100,N,0,19.444444444444446,0.9963287880878287,0.9957235470619079,0.8285801901257281,0.3068592057761733,0.9477857092339547,4.160529755381754,21.27595272107451
100,N,0,19.444444444444446,0.9931633420493641,0.99427488786025,0.8683423099940157,0.3424408014571949,0.9256294753090313,4.2560350913031995,22.38918101201233
100,N,0,16.666666666666668,0.9925456554491638,0.9926934338017385,0.834800270819228,0.3141153081510934,0.9301093051338779,4.206660890435076,22.17592627184002
100,N,0,19.444444444444446,0.9869162719082507,0.9884146552486381,0.8472103004291845,0.29069767441860467,0.9182557982860006,3.8702109006034595,19.097102995885148
100,N,0,16.666666666666668,0.9922446867829988,0.9931538401015134,0.8390667065510021,0.3132530120481928,0.8861844277565559,3.972296515288687,20.70997722079833
100,N,0,22.22222222222222,0.9648371308579171,0.9675082945586239,0.8656629994209611,0.32600732600732596,0.9515037676574618,3.9050059246153253,18.87128143888179
100,N,0,22.22222222222222,0.9880832066024116,0.9879101392970492,0.8725354068314356,0.3046594982078854,0.9431203836067154,3.959830091864957,19.118908101599676
100,N,0,19.444444444444446,0.9869924181454288,0.9867747830547967,0.8599211563731931,0.29013539651837517,0.8988412882260006,3.7398297061536994,17.970779141898465
100,N,0,16.666666666666668,0.990366394430198,0.9905967250383602,0.8404059040590407,0.31599999999999995,0.9032093904839682,4.030104075685937,20.761756557940352
100,N,0,16.666666666666668,0.9811951990007669,0.9804827209120643,0.8726442033123929,0.2581818181818182,0.9336692049447936,4.057736570072563,20.308161523199384
100,N,0,25.0,0.9519421969397339,0.9623459331942457,0.8649093904448107,0.2904411764705883,0.9601598058056036,3.7155815662817018,16.918513869579368
100,N,0,16.666666666666668,0.9959696331091061,0.9961239432939067,0.8515050167224081,0.3107569721115538,0.9230688445191261,4.253406998929186,22.472480968391046
100,N,0,13.888888888888888,0.9870358128582681,0.9866484213093423,0.8444067796610171,0.33333333333333337,0.9231449168134408,4.3821842241742965,23.99493228076686
100,N,0,16.666666666666668,0.9916789287747014,0.9912554613917256,0.822282980177717,0.2964426877470357,0.9469426022776969,4.241268072835246,22.101581223787058
100,N,0,16.666666666666668,0.9809332025879174,0.9819338994277753,0.8591169531513315,0.36153846153846153,0.9289539482656726,4.354920536631716,23.388884110161044
100,N,0,19.444444444444446,0.9950239555290936,0.9946566697621196,0.8674737177445048,0.30039525691699603,0.9261359892982262,4.1240200919712136,21.0187950270449
100,N,0,25.0,0.9528194075395378,0.957991251298621,0.8769192669638434,0.28515625000000006,0.9256803331806118,3.4527999167210415,14.978920632510391
100,N,0,22.22222222222222,0.9536175789983584,0.9534385591649044,0.8920059582919562,0.27169811320754716,0.9199444033642686,3.573046805893541,15.887944105769757
100,N,0,19.444444444444446,0.99044695059764,0.9905353087575552,0.8274021352313168,0.27459016393442626,0.9649761947809318,4.155031943922755,20.842139319406474
100,N,0,16.666666666666668,0.9879736562436859,0.9879018515513872,0.8357650579872803,0.3130081300813008,0.9526255961057271,4.50689120484984,24.492572855274737
100,N,0,16.666666666666668,0.9881974131674297,0.9874757700671636,0.8554714384033036,0.310483870967742,0.9405868120425104,4.215525032774883,21.7431736244009
100,N,0,16.666666666666668,0.9828329135256733,0.9825844140827098,0.8666666666666667,0.3038461538461538,0.9345014407327465,4.106209674245158,20.979372446114652
100,N,0,16.666666666666668,0.9847838513630238,0.9863983883299814,0.841025641025641,0.31196581196581213,0.8831627362317201,4.018980593112855,21.0581322370276
100,N,0,16.666666666666668,0.9877202209628912,0.9871435670250964,0.8378283712784588,0.31274131274131284,0.9456551724137932,4.389127440232138,23.453288652590977
100,N,0,25.0,0.952806187912602,0.9572946084605204,0.8684611477907567,0.31182795698924737,0.9555096291078943,3.7083381128737014,16.70766389253091
100,N,0,19.444444444444446,0.9815947102265553,0.9842368533366842,0.8907249466950959,0.2754716981132076,0.922360056643477,3.7476692566204317,17.75174972903224
100,N,0,16.666666666666668,0.9895127761430224,0.988587320506186,0.8152844413982181,0.3174603174603174,0.9465921958684008,4.12201026585459,21.460407685018673
100,N,0,16.666666666666668,0.9906915688197989,0.9905120726291692,0.8280090351726365,0.3134920634920635,0.9098171815730182,4.243663409659329,22.776367341242075
100,N,0,16.666666666666668,0.9889873699582942,0.9892835674687562,0.8141619360621453,0.2782258064516128,0.9118553920790994,3.911037570116853,19.543570401571
100,N,0,19.444444444444446,0.9872806089281462,0.9864716289641219,0.8312372038607779,0.2527075812274369,0.9513747214642888,4.0773301235526125,20.375773395351633
100,N,0,22.22222222222222,0.9666423666064873,0.9645857821873415,0.8326155612977317,0.3212996389891697,0.9543255453835688,3.9453975660245435,19.343529063546775
100,N,0,19.444444444444446,0.9954253502047855,0.9962859281881634,0.834836702954899,0.32388663967611336,0.9076269909831254,4.106047146334855,21.314381923714983
100,N,0,16.666666666666668,0.984280821039132,0.984745276767165,0.804590570719603,0.3187250996015936,0.9070072937908945,4.13264186662637,21.788831606969325
100,N,0,16.666666666666668,0.992698102965349,0.9923252893692498,0.8363883231500339,0.30196078431372547,0.9349358037323978,4.261929320692801,22.43767290673143
100,N,0,16.666666666666668,0.9961213342438905,0.9964834587234679,0.8520325203252033,0.30827067669172936,0.930606073217085,4.262636313269532,22.43800017763188
100,N,0,16.666666666666668,0.9901274963524249,0.9902975374186049,0.8316415820791041,0.33976833976833976,0.9442005520511977,4.385465456605765,23.615416329067678
100,N,0,16.666666666666668,0.9851038290816612,0.985529708718096,0.8355437665782494,0.30252100840336127,0.8839715863670489,3.797473358102099,18.977759310646285
100,N,0,16.666666666666668,0.9892062992425643,0.9902327005680461,0.8271759549154665,0.30416666666666664,0.8783187642523621,4.007081551462703,21.08799450871655
100,N,0,19.444444444444446,0.992127942262861,0.9917030421250914,0.8111444778111445,0.3137254901960785,0.9545388550589721,4.127808487564576,21.044874486156154
100,N,0,19.444444444444446,0.9959741721748455,0.9959112739798883,0.8325534759358288,0.29702970297029707,0.9395666450546923,4.17761108302548,21.813378785826664
100,N,0,16.666666666666668,0.9931051166671542,0.9931252098711517,0.8620381406436235,0.31300813008130085,0.8869327235784398,3.9631535198036807,20.37868751852542
100,N,0,19.444444444444446,0.9946553379526951,0.9936627025631358,0.8160558464223386,0.29803921568627456,0.9524684770746483,4.269842327830036,22.610257774952867
100,N,0,16.666666666666668,0.9931845554100063,0.9933704630364458,0.8503638089212274,0.30038022813688214,0.9341050854218635,4.165927983687893,21.594418839507973
100,N,0,19.444444444444446,0.9874565077869762,0.9900554233808243,0.8385243423042034,0.3209876543209877,0.9193558113956367,3.794860337732177,18.546519321364464
100,N,0,19.444444444444446,0.9888039713662794,0.9887947172498643,0.8789041095890411,0.2530120481927712,0.8992064170155452,3.71518084755191,17.810545995719675
100,N,0,16.666666666666668,0.9855486934484848,0.984378773090497,0.8348258706467663,0.32335329341317365,0.9186036137937185,4.236894707795631,22.480661165549982
100,N,0,19.444444444444446,0.9945113888981385,0.9942569016135809,0.8419672131147541,0.2834008097165992,0.9330310355063642,4.168279608251157,21.434166056957178
100,N,0,22.22222222222222,0.967235826044775,0.9688117295361947,0.8712599505901728,0.3108614232209739,0.9446607724641398,3.7525742403435447,17.44296069874185
100,N,0,16.666666666666668,0.9819331188143398,0.9809399281909732,0.8649567367119901,0.2992424242424242,0.9312687718158942,4.088056479979753,20.946791964993697
100,N,0,16.666666666666668,0.9925803775317722,0.9920325962487534,0.8149478979518504,0.31277533039647576,0.9247094510769731,4.066194602053862,21.124227175857936
100,N,0,16.666666666666668,0.9941173841236244,0.9944502437082663,0.8209523809523811,0.30204081632653057,0.9046457855671706,4.143179075671373,21.953831757296857
100,N,0,16.666666666666668,0.98967118821758,0.9891453215378448,0.8303540133193129,0.3003952569169961,0.9585512431650479,4.289605569920993,22.30511796074908
100,N,0,19.444444444444446,0.9954853794356738,0.9954202539057045,0.8355614973262032,0.2926829268292682,0.9339787875839253,4.089937555031216,20.878362668389403
100,N,0,19.444444444444446,0.9823461726191066,0.9825612268930739,0.8660691421254801,0.2857142857142858,0.9056002626960514,3.7080364604233047,17.55596464172114
100,N,0,16.666666666666668,0.9874802892205717,0.9869415008466993,0.8214176127646516,0.29729729729729737,0.9409296709122406,4.036174807065078,20.220215140238334
100,N,0,19.444444444444446,0.9939429282424141,0.9939891391033069,0.8626712328767122,0.2685185185185185,0.8910433839643888,3.8793718253513205,19.276077349938557
100,N,0,16.666666666666668,0.9877733285339099,0.9868823667564939,0.8748180494905387,0.32352941176470584,0.9035875311449143,4.122911163426161,21.554823621953112
100,N,0,19.444444444444446,0.9832607527488393,0.984389551415598,0.8573426573426574,0.2553956834532374,0.9431335969199709,3.969876327740665,19.521432676847695
100,N,0,16.666666666666668,0.9745011133065428,0.974398404058828,0.8325051154633148,0.3203125,0.8799022467103984,4.035838971710594,21.25403031633082
100,N,0,16.666666666666668,0.9913012767188503,0.9908029294202737,0.8491551459293395,0.31598513011152424,0.9338287231207486,4.166608919334517,21.38892810578014
100,N,0,16.666666666666668,0.9890278786751966,0.9893290481023791,0.8009964018820924,0.34057971014492755,0.9179113764973731,4.102760855025027,21.044222529609197
100,N,0,16.666666666666668,0.9905577354709101,0.9900363624020598,0.7809419496166485,0.31196581196581197,0.9472375779795448,4.20574770483959,22.362533429277555
100,N,0,16.666666666666668,0.9921108081676039,0.9915110158524004,0.8346456692913385,0.28906250000000006,0.9419606326574077,4.118111299894505,21.046233743814568
100,N,0,13.888888888888888,0.9795576022915924,0.9794448195029215,0.8207580588026921,0.33620689655172414,0.9035477769059018,4.13735995043535,22.416880479692775
100,N,0,16.666666666666668,0.9871075496383334,0.9877004328329556,0.824299634591961,0.3060344827586208,0.8853338607393041,3.7196354650925163,18.401913724903395
100,N,0,16.666666666666668,0.9851617785800086,0.9845544047079894,0.8156230234029097,0.2914979757085021,0.909802019995789,4.051988015314862,21.18515124498958
100,N,0,19.444444444444446,0.9883474733905979,0.9876031076459879,0.8214860083628177,0.2950819672131148,0.9380873443161649,3.9655885137618236,19.772198773751246
100,N,0,19.444444444444446,0.9910581249733572,0.9915614598457397,0.8301826337712271,0.3244444444444443,0.8867320493927537,3.7480192895440507,18.800309596342753
100,N,0,19.444444444444446,0.9860827972768912,0.9867870578449117,0.8407229596159279,0.28800000000000003,0.9092036786569617,3.6916667028029004,17.69973524970059
100,N,0,16.666666666666668,0.9794141133652577,0.9775873484587372,0.78372591006424,0.3354838709677419,0.9277748476857325,4.101179482547267,21.800768434457353
100,N,0,16.666666666666668,0.9831083457544044,0.9854346837569309,0.8377232818649711,0.3083511777301927,0.8648833286007785,3.7842634058769913,19.260357824636777
100,S,0,22.22222222222222,0.9520453017078767,0.9619758504216445,0.8800483675937122,0.31578947368421056,0.9188588333927593,3.5751116406111554,16.178697517712575
100,N,0,19.444444444444446,0.9875737810462416,0.9878845339874074,0.8344389165284688,0.28015564202334625,0.9023730610480377,3.850203549991428,18.910080068324152
100,N,0,16.666666666666668,0.9880425665040516,0.9894823721255136,0.868726963425007,0.328358208955224,0.8898645972079322,4.077330889319159,21.24245297303534
100,N,0,30.555555555555554,0.848541450874476,0.8736262083382288,0.8422899353647276,0.2295081967213115,0.9583102729546731,3.1230633435390676,12.0219758187333
100,N,0,16.666666666666668,0.9860964368518439,0.9872482510895398,0.8608819345661451,0.32089552238805974,0.8927656515312871,4.101637618991083,21.359163645265436
100,N,0,16.666666666666668,0.9919911306329179,0.9930702782021756,0.8561797752808988,0.3089430894308943,0.9073804218726986,4.126951948643641,21.495561079371136
100,N,0,13.888888888888888,0.9812539185767465,0.9835632096588057,0.857940446650124,0.3236514522821577,0.8750923672453885,4.118975456810716,22.22108060748476
100,N,0,19.444444444444446,0.9858773407359837,0.987052224852103,0.8759861932938857,0.2324723247232472,0.8898700447744895,3.678814108518473,17.588296514712816
100,N,0,16.666666666666668,0.9899308075999381,0.9901992612900182,0.8728584310189359,0.3096234309623432,0.8592916607873573,3.8065398622721256,19.337589233488252
100,N,0,16.666666666666668,0.9635028969715,0.9640190952253135,0.8464954012052015,0.3139013452914799,0.8452907955859802,3.8562482544643286,20.223252226204192
100,N,0,16.666666666666668,0.9917526401258893,0.992167384844568,0.8520599250936329,0.284518828451883,0.8905946051095835,3.9530244697588763,20.234549927706638
100,N,0,22.22222222222222,0.9695974844296309,0.9713932080798132,0.8610786831660051,0.2737642585551331,0.9034519011739969,3.4618604830788295,15.382321695849189
100,N,0,16.666666666666668,0.9821399334048065,0.9819651085102361,0.8638235294117647,0.2974137931034483,0.8704581804497132,3.632239434581623,17.870393473009397
100,N,0,16.666666666666668,0.9866598368160896,0.9876686287128467,0.7999337528983107,0.3207126948775056,0.887486451719366,3.8504325822591507,20.211321762966968
100,N,0,16.666666666666668,0.9779575303614423,0.9783599188780738,0.8685808945334069,0.2992125984251968,0.851050819820636,3.839302465801968,19.670382378211094
100,N,0,16.666666666666668,0.9854946650522317,0.9864562621986341,0.8668906694236236,0.3139534883720931,0.8393070474296674,3.707996764450051,18.600739712686032
100,N,0,16.666666666666668,0.9735958067823264,0.9761171286693545,0.865434594282414,0.3372093023255814,0.8761559701383511,4.044836376844122,21.465342213772324
100,N,0,25.0,0.9498696146834275,0.9542599654253917,0.8868094701240135,0.22580645161290322,0.9203419713025659,3.4516450865983725,15.01992313753479
100,N,0,16.666666666666668,0.9836095878048264,0.9846239134680304,0.8525307797537618,0.31854838709677413,0.8484953817259309,3.6713569830780033,18.48635163611916
100,N,0,25.0,0.9561911039055022,0.9591282159585588,0.8894711767508338,0.2241992882562278,0.9407049052967978,3.5523673778993414,15.559117625906946
100,N,0,16.666666666666668,0.9870279750604929,0.9863905883044953,0.8733850129198966,0.32786885245901637,0.8626418047431761,3.746880013872329,18.899756262867808
100,N,0,16.666666666666668,0.9882962061140357,0.9888369875347665,0.8279124778237729,0.31300813008130085,0.8953780515337991,3.8838911163845626,19.553110404866647
100,N,0,19.444444444444446,0.9876548320387749,0.9890933698368851,0.8038334830787662,0.3186582809224318,0.8969960671474501,3.7669202804743387,18.92122383967037
100,N,0,16.666666666666668,0.9783574773530064,0.9797182754363649,0.8664249017830159,0.35955056179775285,0.9044150741507133,4.233367593060303,22.674151751863807
100,N,0,16.666666666666668,0.9918069688644382,0.9918167746226647,0.8764367816091956,0.32967032967032966,0.9110651317049567,4.135564876531207,21.37698073885241
100,N,0,19.444444444444446,0.9879066043137766,0.9888284801949321,0.8643216080402011,0.3345070422535211,0.8952214567028073,3.818746627324469,18.60426302686288
100,N,0,19.444444444444446,0.9911932375911606,0.9933574167940641,0.8635411210057622,0.34892086330935246,0.9086498550645743,3.994786475488176,20.265146793121527
100,N,0,16.666666666666668,0.9823279644113693,0.988656510443583,0.8577416819491749,0.34642857142857136,0.8946711623609593,4.0403330415352725,21.321376138192363
100,N,0,16.666666666666668,0.9876382490036917,0.9896825406786154,0.8609366076527698,0.3584905660377358,0.8852580378049647,4.046478959046675,21.29312272343278
100,N,0,16.666666666666668,0.9915430848321385,0.9905901347707832,0.9057971014492753,0.3271375464684015,0.8736039179251994,3.9545029616883753,20.293850209356112
100,N,0,16.666666666666668,0.9791405692354909,0.980279770910921,0.8688946015424165,0.3449612403100776,0.8771139745759032,4.009421642222274,21.03781920420992
100,N,0,25.0,0.9579192830262382,0.9613796175970631,0.8968757340850364,0.3011152416356877,0.9087760857087461,3.4732191608582927,15.380986634664037
100,N,0,16.666666666666668,0.973038018556376,0.9760136990323452,0.8586147681740127,0.33939393939393936,0.8559763730173188,3.905511006289128,20.484769991976222
100,N,0,16.666666666666668,0.9806991014484948,0.9804804874813565,0.8303012227855654,0.29338842975206614,0.9066544118730097,3.8030688454980295,18.813224780914524
100,N,0,25.0,0.9521416422041903,0.9587443639424574,0.8859331772717599,0.19723183391003457,0.9161768028069556,3.400367213368774,14.750914537413554
100,N,0,22.22222222222222,0.9366508420976841,0.9369288558705253,0.8594240837696338,0.3026819923371648,0.9368603290484839,3.5982126583832548,16.316221501426007
100,N,0,22.22222222222222,0.969722591030648,0.9715284195765371,0.8597161572052401,0.21960784313725484,0.9274624562894663,3.6565458609731247,17.035794192784667
100,N,0,16.666666666666668,0.9800955840799693,0.9827636802647456,0.8070821529745043,0.30800000000000005,0.8731328120189642,3.9255284977831195,20.402710841775757
100,N,0,16.666666666666668,0.9878446286898533,0.9871558030965295,0.8329790464621927,0.2698412698412698,0.9145578469560406,3.9672620799394465,19.87692171619921
100,N,0,16.666666666666668,0.9895875364606368,0.9890305827382979,0.8526920750151239,0.3056603773584905,0.9357040471520904,4.13766759004353,21.0334096958591
100,N,0,13.888888888888888,0.992629231847057,0.9937304372331589,0.8612698412698414,0.32830188679245287,0.9286797059074006,4.319579254994175,23.076664195363847
100,N,0,19.444444444444446,0.9958012813911962,0.9957012243353628,0.8597370068879148,0.3113553113553114,0.947135733040718,4.222785191791193,21.591726316811677
100,N,0,16.666666666666668,0.9893052702506685,0.990069932839927,0.853843720341664,0.3203124999999999,0.9153861334228749,4.135117606417322,21.662451231479345
100,N,0,16.666666666666668,0.9902279595866375,0.9893836038325051,0.8807174887892376,0.31147540983606564,0.8867350694086646,3.906782539248101,19.552678744305737
100,N,0,22.22222222222222,0.9406700886566488,0.9453378885972885,0.8702645502645504,0.2452504317789292,0.9187157295735003,3.47050641318217,15.2177945488061
100,N,0,19.444444444444446,0.9709317030953556,0.9723546946683816,0.8607399794450153,0.28776978417266175,0.9074515962066517,3.8040894239041534,18.624669671035218
100,N,0,16.666666666666668,0.9929749162208046,0.9937584267894162,0.8692493946731237,0.3181818181818181,0.9041478038781524,4.160240241195868,21.905924464668995
100,N,0,16.666666666666668,0.9717654656112578,0.9735964464263036,0.8211064341551414,0.34538152610441764,0.8726870136897691,3.8995493844960145,20.497657912766584
100,N,0,16.666666666666668,0.9929947416660413,0.992944952753131,0.8237717908082409,0.31496062992125984,0.9257312715242323,4.124295031616769,21.40906259246367
100,N,0,19.444444444444446,0.9954069702731692,0.9952749627069924,0.8689450222882614,0.30152671755725197,0.9132098794779758,4.031403487249534,20.539649900653323
100,N,0,16.666666666666668,0.9846477851783737,0.9864236354140791,0.8382352941176471,0.32399999999999995,0.8777581028241281,3.9533963464556128,20.53561529627091
100,N,0,16.666666666666668,0.9882475836055049,0.9899713531128232,0.8129816241849437,0.3134920634920634,0.8953530929381414,3.8987851604850543,20.414504648760413
100,N,0,16.666666666666668,0.9871852129076566,0.9872727837734876,0.803691275167785,0.34854771784232363,0.9158294803412033,4.191017232304043,22.652408611776195
100,N,0,16.666666666666668,0.9855220018470696,0.9869531601678356,0.8527272727272727,0.3333333333333334,0.8787029421069282,3.9418066797708304,20.42748442431627
100,N,0,16.666666666666668,0.954987846211965,0.9658826024377292,0.7765337065547002,0.3320312499999999,0.7944402134614909,3.405248523794263,17.282388213516022
100,N,0,19.444444444444446,0.9881295156424683,0.9874237010497282,0.82402496099844,0.3165467625899281,0.9622201705056418,4.19821131393917,21.334958772329202
100,N,0,22.22222222222222,0.9767181942274146,0.9767728167132631,0.8836276083467097,0.2733333333333334,0.9588450549809591,4.028101141033814,19.297161226767546
100,N,0,16.666666666666668,0.9904553363999952,0.9913087345210889,0.8743470690655832,0.3283582089552239,0.8936645396536007,4.132579413618222,21.747165361394565
100,N,0,19.444444444444446,0.9702639385665994,0.9768805153652909,0.8928852717248621,0.29241877256317683,0.9256769279335242,3.737924445136349,17.573338239044322
100,N,0,16.666666666666668,0.9851622987085132,0.9866276355722678,0.8427384703523345,0.32958801498127344,0.8912768473825604,4.108120256474692,21.530454200394143
100,N,0,19.444444444444446,0.9922129367185907,0.9929619504740979,0.8371907422186753,0.31226765799256506,0.901752067675826,3.862678970328783,19.064020404868145
100,N,0,25.0,0.9594313748705007,0.9626280372970094,0.850646352723915,0.3087719298245614,0.9388550527390269,3.6156639153170658,16.160246469272813
100,N,0,19.444444444444446,0.9947834479795906,0.9952301850723814,0.8618382780686445,0.32567049808429116,0.8933783559428237,4.02039769365169,20.770708570552213
100,N,0,16.666666666666668,0.9733266107946232,0.9736798965988199,0.848891664064939,0.31275720164609055,0.8765078901701294,3.9868840077757057,20.944705518059212
100,N,0,16.666666666666668,0.9871406960877078,0.9890329065616303,0.8458308338332334,0.3266129032258065,0.8788985028497782,4.02537411504559,21.14473314226752
100,N,0,16.666666666666668,0.9792988469411719,0.9792731883757599,0.8563520619983395,0.3125,0.8492238398724788,3.7728260057446046,19.23696467056718
100,N,0,16.666666666666668,0.9823446500023894,0.9832851831314168,0.839828168149739,0.3492063492063492,0.9022194529789657,4.011099201186135,21.063256575418905
100,N,0,19.444444444444446,0.9918632077921695,0.9927835388259807,0.852129574085183,0.3346938775510203,0.8790376860807083,3.8924600320223854,19.964757213311657
100,N,0,16.666666666666668,0.9821107867379185,0.980829488630041,0.872781954887218,0.31404958677685946,0.8733454443232,3.8326981967740483,19.31182253839688
100,N,0,13.888888888888888,0.969805118994953,0.9698391484199852,0.805901173124778,0.34249471458773784,0.9029962460116283,4.268271671005526,23.61178441187407
100,N,0,16.666666666666668,0.9876870072296423,0.9879336153226512,0.8689788053949903,0.27843137254901956,0.8602624306723096,3.7677322381933336,18.928818946552457
100,N,0,16.666666666666668,0.9701443657356442,0.9708076895528943,0.8722222222222222,0.32530120481927705,0.8304815953529634,3.7918620490247346,19.658875279198952
100,N,0,22.22222222222222,0.9579166724062061,0.9577937453398221,0.8932467532467534,0.3057090239410681,0.9438370902528329,3.7051594359863294,16.733921800813732
100,N,0,16.666666666666668,0.9788251628589916,0.9779979860285721,0.847509113001215,0.32217573221757323,0.8815278752460858,3.7882538151960503,19.232150815486882
100,N,0,16.666666666666668,0.979716536923162,0.9819639732439002,0.851140456182473,0.3375,0.8625688727555585,3.8820780133707458,20.313256002389032
100,N,0,19.444444444444446,0.9946264134361589,0.9955638797753118,0.8467233342473265,0.27067669172932324,0.8993306185224671,3.9061047653446965,19.58953397887685
100,N,0,16.666666666666668,0.9832320262422946,0.9861979028430631,0.849250936329588,0.3476562499999999,0.90975696926376,4.206156621258878,22.25269984779084
100,N,0,16.666666666666668,0.9945406401199658,0.9951816034399589,0.8580562659846548,0.3196881091617935,0.9090658743602948,4.149218331410259,21.903174525199052
100,N,0,16.666666666666668,0.9915335197122068,0.9923935605607167,0.831255992329818,0.29875518672199175,0.901068444084331,3.948671045144118,20.47592864154472
100,N,0,16.666666666666668,0.9696882371775905,0.9716050350298578,0.8578790344453484,0.32388663967611336,0.8144176078562578,3.669220921684911,18.837171239511953
100,N,0,16.666666666666668,0.9886880119718011,0.9895687251042606,0.8505780346820809,0.2868525896414343,0.8857392355746624,3.8079596303204655,18.879574608233064
100,N,0,16.666666666666668,0.9893884985911977,0.9904957411103688,0.8179700499168053,0.3145161290322581,0.9236754732160225,4.222813642554853,22.626599679529047
100,N,0,16.666666666666668,0.9853168803751772,0.9859207809223591,0.8427281220803488,0.34188034188034194,0.8742241141172126,3.8481782951456274,19.641122692304958
100,N,0,16.666666666666668,0.9855471961735324,0.9855149619085092,0.8521208599651364,0.23600000000000004,0.9011304439289847,3.7690134505282207,18.715156286099763
100,N,0,16.666666666666668,0.9822039804484738,0.9847420532832444,0.8560094034675286,0.30241935483870974,0.8765079589497076,3.9798651047049693,20.695715026303695
100,N,0,16.666666666666668,0.98912931750988,0.9895533367437953,0.8501861930678888,0.285140562248996,0.8914774839750309,3.828849811636889,19.053803171717636
100,N,0,22.22222222222222,0.9487796873299941,0.9513707399930698,0.845927903871829,0.2973977695167287,0.9535241226943431,3.7177066279905078,17.091594352002616
100,N,0,16.666666666666668,0.9872923970635121,0.9864550439934697,0.8082322910019145,0.33532934131736525,0.9255157935088933,4.074586474862724,20.980454941998087
100,N,0,19.444444444444446,0.9842255474218576,0.9849404397667915,0.8628099173553719,0.3320000000000001,0.9100372351428825,3.6788414256388053,17.338383268460447
100,N,0,22.22222222222222,0.9456741426822279,0.9483382293134187,0.8894891944990175,0.28825622775800713,0.9240289448939468,3.6864902971108116,17.06971302995239
100,N,0,22.22222222222222,0.9764097637986393,0.975834596486199,0.8757999525954018,0.2717770034843206,0.9016251058899135,3.7132179826415084,17.634217404802854
100,N,0,16.666666666666668,0.9880516565721594,0.9899685225471148,0.8379642365887209,0.32682060390763773,0.9096649661875867,4.154566883653119,21.62946152184059
100,N,0,16.666666666666668,0.9936065369449648,0.9933803761399086,0.8621985593485748,0.3255813953488371,0.9193267381975423,4.0821177815013465,20.982442478182143
100,N,0,19.444444444444446,0.9783422876693258,0.980817609598622,0.8430050565856009,0.2972027972027972,0.9165290757684958,3.8039024456115063,18.30396176757556
100,N,0,16.666666666666668,0.9848928529706825,0.9851145005769589,0.8797709923664121,0.33834586466165406,0.8556303613205094,3.863095649983771,19.85850249460051
100,N,0,16.666666666666668,0.9770269561508182,0.9786690490786735,0.8534927969556945,0.3062015503875969,0.8566923309306612,3.8361394500533468,19.758100510984246
100,N,0,16.666666666666668,0.9907694223038648,0.9913112578518888,0.8645747316267549,0.3153846153846154,0.8762363133196969,3.8928521381772994,19.687826478238605
100,N,0,19.444444444444446,0.995903551492345,0.9951798178311053,0.8905109489051095,0.30597014925373134,0.8964575207612416,3.911721795884661,19.475736384278978
100,N,0,16.666666666666668,0.9853559244534729,0.9867225735224193,0.8511536297129993,0.34944237918215615,0.8924307144266508,4.075039831439814,21.34102968734148
100,N,0,19.444444444444446,0.9945466457887734,0.9946126388872258,0.8609749062590135,0.31698113207547174,0.9132285859097821,3.960334114543805,19.716772041674258
100,N,0,16.666666666666668,0.9892940405341236,0.9923012245324617,0.8579965850882185,0.34065934065934067,0.899118931213888,4.133072256948384,21.81226189903097
100,N,0,19.444444444444446,0.9966663180744791,0.9967736337159234,0.8745714285714287,0.3028037383177571,0.904633309807709,3.9803929919236807,20.031319453500007
100,N,0,19.444444444444446,0.969920306644096,0.9726107653403596,0.8574332909783988,0.27611940298507476,0.9028016918071843,3.6300333084413623,17.099239522348586
100,N,0,16.666666666666668,0.9847886574173602,0.9866741884258794,0.8330489885449671,0.2822299651567943,0.8874370536155086,3.886669331759507,19.593002372388785
100,N,0,19.444444444444446,0.9962445372782176,0.9964556081845785,0.858050847457627,0.3309352517985612,0.932041805716253,4.186523245600507,21.547203262590543
100,N,0,16.666666666666668,0.9859797944245126,0.9883458714515663,0.8477297895902548,0.31506849315068497,0.9210536111447155,4.226885873919635,22.390325149944925
100,N,0,19.444444444444446,0.9912885595854704,0.9908543854627462,0.8708965517241378,0.2727272727272727,0.9147499116396265,3.9110813590675444,19.414988348723146
100,N,0,16.666666666666668,0.9785986459335995,0.9795893530214859,0.8732087227414329,0.33204633204633205,0.8953237452030187,4.10078575970513,21.50145232436875
100,N,0,16.666666666666668,0.979506035923145,0.9812853615425581,0.8572882218265074,0.3214285714285714,0.8149743458115092,3.570419140363823,17.796642898446596
100,N,0,19.444444444444446,0.9921880484839,0.9931124896353913,0.8407396361467344,0.29875518672199175,0.8778408128965133,3.809002481756698,19.252379935576958
100,N,0,13.888888888888888,0.9937880987001458,0.9943251941250367,0.8503260225251926,0.3036053130929792,0.8996677189835911,4.170464355005679,22.124670308483353
100,N,0,19.444444444444446,0.9941137046076579,0.9948530365974194,0.8449445129469791,0.3280632411067193,0.9151491098764032,3.9778221070267343,20.277867591764384
100,N,0,22.22222222222222,0.9824411689713997,0.9821865308828525,0.8727695888285492,0.2359550561797752,0.9110945095873801,3.6402195597791622,17.053781008397266
100,N,0,16.666666666666668,0.985580466885999,0.9849253836711049,0.8224426958604176,0.3426294820717131,0.9353135687340525,4.275061794840595,22.726104523829093
100,N,0,22.22222222222222,0.9452498864977966,0.9457258269485551,0.8717499999999999,0.28366247755834834,0.9432272327119577,3.6406300533215767,16.213546005157387
100,N,0,16.666666666666668,0.991425873985609,0.9926170355445607,0.8685529030356616,0.3207547169811322,0.8996112802584534,4.12347423601223,21.667497852380745
100,N,0,16.666666666666668,0.9877475769924466,0.9875034279353297,0.86881335718545,0.33652007648183563,0.9007683747404969,4.040004309830092,20.820368106299334
100,N,0,16.666666666666668,0.9842286651292371,0.9860209899714374,0.819401733296058,0.3139534883720931,0.8692177610560068,3.866883307322678,20.22124342824432
100,N,0,16.666666666666668,0.9849250975200936,0.9865654243897295,0.8366400412264879,0.28947368421052627,0.8688827983368927,3.765199670419416,18.971563264479546
100,N,0,16.666666666666668,0.9913405161103029,0.991585650562277,0.8531701890989989,0.31365313653136534,0.8904849418714774,4.012630645209059,20.62804203588535
100,N,0,22.22222222222222,0.9811623234281049,0.9808481197385295,0.8647247593186868,0.2949152542372881,0.9443612290917652,3.935744639169151,18.710002351184357
100,N,0,19.444444444444446,0.9924384209335425,0.9923970472984774,0.846861471861472,0.261168384879725,0.9414960433434697,4.09059333145304,20.474840573593102
100,N,0,19.444444444444446,0.991959310367388,0.9908496457349926,0.901277013752456,0.3121019108280254,0.9181201761653511,4.059936698035821,20.375101937392696
100,N,0,16.666666666666668,0.989566463442367,0.9902886436855669,0.8759198173052524,0.3133333333333333,0.913786353972814,4.087178487301989,20.72527195631144
100,N,0,19.444444444444446,0.9943604176008641,0.9947866478811284,0.8701265822784809,0.3180327868852459,0.9274657415175773,4.089741806847189,20.47425632520173
100,N,0,19.444444444444446,0.992970328765829,0.9943385723238536,0.8503134796238244,0.35593220338983056,0.9231779479999831,4.143601761698067,21.192387876770137
100,N,0,25.0,0.9300830556094616,0.9332278709043128,0.9036858271171567,0.29299363057324845,0.9473721918162303,3.60560396990799,15.849224431903767
100,N,0,22.22222222222222,0.9503902538267435,0.9501577894699429,0.8958848662019339,0.2945990180032733,0.935356184103023,3.729018232043696,17.046221882762826
100,N,0,19.444444444444446,0.9924898304029163,0.992378484336185,0.8826783114992721,0.2947761194029851,0.9177229605402899,4.129901152213363,21.1006104553992
100,N,0,19.444444444444446,0.9846280270234,0.9867887622523697,0.8504053058216654,0.26811594202898553,0.9057124422839682,3.7173413667391113,17.744012196583625
100,N,0,16.666666666666668,0.9852644479381111,0.9871828118470948,0.8359291084854994,0.29457364341085274,0.8658606365712084,3.884129732411611,20.035974474267185
100,N,0,16.666666666666668,0.9904081907991588,0.9902671432627255,0.8770856507230256,0.2676579925650556,0.9160047500320283,3.9936707507535227,20.061381385480907
100,N,0,19.444444444444446,0.9857944158175123,0.9881775909604745,0.8374135178286323,0.2737642585551331,0.8966269461861294,3.8709048325872675,19.364022908398788
100,N,0,16.666666666666668,0.9920737328835602,0.9914541270996898,0.8170731707317073,0.31954887218045114,0.9470707583058586,4.402647743443534,23.38888375345224
100,N,0,16.666666666666668,0.9853171620006099,0.9845683752256407,0.8654970760233917,0.302158273381295,0.9416899706162274,4.197163763918625,21.442906855222603
100,N,0,16.666666666666668,0.9863202751443764,0.9857974921475182,0.8718670076726344,0.30718954248366026,0.9318278149235723,4.1173094591048045,20.66373077099995
100,N,0,19.444444444444446,0.9952007604291652,0.9949317897891942,0.8384180790960452,0.2982456140350877,0.9350750568341694,4.1257309907534125,20.912802848732397
100,N,0,25.0,0.9473513792916473,0.9507506335026499,0.9166998011928429,0.24624624624624625,0.9391261904761904,3.562915155079193,15.484876693028475
100,N,0,16.666666666666668,0.9917342574431802,0.991932344990905,0.863299841353781,0.35416666666666674,0.9003919903020008,4.051362684435256,20.768210480572666
100,N,0,19.444444444444446,0.995514534046345,0.9950902157396595,0.9064026044492675,0.30716723549488056,0.9243541690227313,4.075727176384215,20.430116305693513
100,N,0,19.444444444444446,0.9918554605133935,0.9912310165012911,0.8982264665757161,0.31379310344827577,0.9226690167874962,4.105304467926165,20.778866356034335
100,N,0,19.444444444444446,0.9947979170151962,0.994420341267746,0.8843334238392615,0.3221238938053097,0.8957381049206994,4.08283942096745,21.113292908092223
100,N,0,19.444444444444446,0.9934430759130862,0.9927874290268716,0.8922865013774106,0.30685920577617326,0.91194864219975,4.028525474271856,20.17438892079371
100,N,0,16.666666666666668,0.990365981186447,0.9921226167416408,0.8782033618076606,0.3152364273204904,0.9000057384829843,4.186828231540711,22.046958769359602
100,N,0,19.444444444444446,0.9885461682935714,0.9879324368412007,0.892988929889299,0.27758007117437733,0.9214020093275532,3.8462125541891115,18.534854562720597
100,N,0,16.666666666666668,0.9742990570765669,0.9741008756591479,0.8814557131388816,0.3257443082311734,0.8944115727190416,4.054679331155608,20.991343852362093
100,N,0,19.444444444444446,0.9902045006393156,0.989599708384626,0.8871302542812664,0.2571428571428572,0.9170583750178048,3.8862352628156063,18.837906367957334
100,N,0,16.666666666666668,0.9940671597828266,0.9940421381398742,0.8706159740642498,0.31226765799256506,0.9073530307322843,4.134547440938552,21.5141723830839
100,N,0,16.666666666666668,0.9912575553715934,0.9921442765000994,0.8574591752006643,0.30115830115830117,0.8728015237515588,3.928678237399609,20.150099647405654
100,S,0,19.444444444444446,0.989327304827729,0.9913807379630296,0.7965868428296173,0.2790697674418603,0.8994272927975755,3.8337006014001416,19.195796526461166
100,N,0,19.444444444444446,0.9910258780296662,0.9935044174204023,0.819872328615043,0.2992125984251969,0.8796259264617033,3.903599929914629,19.894381441505644
100,N,0,19.444444444444446,0.9911806071604273,0.9899177163679832,0.8177777777777776,0.3154121863799283,0.9615211943008248,4.371909596393213,22.823501308232014
100,N,0,19.444444444444446,0.9914654516971612,0.9928944074978056,0.8214573810164022,0.29588014981273403,0.9019767983287228,3.9750288485002603,20.1595085349234
100,N,0,22.22222222222222,0.9712634898757287,0.9756746065588016,0.8590954274353877,0.3116438356164385,0.9489919862004528,3.810625914369826,17.741492817166844
100,N,0,25.0,0.9386661135437885,0.9445912149957669,0.8697745677391114,0.22923588039867115,0.944992827557735,3.602719823345753,15.857810999991889
100,N,0,16.666666666666668,0.9822934684036164,0.9811614992628261,0.845912845343207,0.29681978798586584,0.9368292800451564,4.1227968037987734,20.783871024747107
100,N,0,16.666666666666668,0.9799154300071017,0.9788020940920541,0.8341630367143745,0.3173431734317345,0.9407883693857106,4.2966612382317715,22.568771408914706
100,N,0,19.444444444444446,0.9944898866522414,0.9941745057244558,0.8317522321428572,0.3049645390070922,0.9407937569092156,4.08126130200792,20.415379683347272
100,N,0,16.666666666666668,0.9909276232798085,0.9904151339801617,0.8799426934097423,0.32068965517241377,0.9307853121754817,4.214844047427514,21.697670030177665
100,N,0,16.666666666666668,0.9861765172620754,0.9879621452682411,0.8667902542372881,0.31849315068493145,0.9229769614608769,4.033410285774563,20.296068836890623
100,N,0,19.444444444444446,0.9943578592228722,0.9936874327793307,0.9072046109510086,0.31468531468531474,0.9272680630841643,4.1153746315975,20.762504149132127
100,N,0,19.444444444444446,0.9910547812095712,0.9915751549832929,0.8568271119842829,0.31045751633986923,0.9348699923557189,4.073516322842737,20.18355768020988
100,N,0,16.666666666666668,0.9883248332141318,0.9878885194496371,0.8845786963434021,0.315018315018315,0.944124306705636,4.223232357173929,21.641731907639418
100,N,0,16.666666666666668,0.9917955093434067,0.9916206692575958,0.8836424957841487,0.3489208633093524,0.9024896971346369,4.139979794933867,21.63035179797836
100,N,0,22.22222222222222,0.9609918098043244,0.9620458226481651,0.8521893191597063,0.2981132075471699,0.9264202304179628,3.64183427571264,16.65297948598293
100,N,0,16.666666666666668,0.9889373896938515,0.9892241800467625,0.8492753623188406,0.3026819923371647,0.8958904707120383,4.00647869696912,20.509674290558127
100,N,0,27.777777777777775,0.9271574191177001,0.9434908406865725,0.8518896833503576,0.2783505154639175,0.9256778456455763,3.2951850619509475,13.832240828612978
100,N,0,19.444444444444446,0.9929082229630635,0.9937249352457824,0.8414329352957512,0.28996282527881034,0.9016390512449282,3.9711535146576833,20.13036644025093
100,N,0,22.22222222222222,0.9158954641192497,0.928784354832987,0.8363719234275298,0.2518518518518518,0.9251488783805644,3.3743110718804137,14.674224096451104
100,N,0,16.666666666666668,0.9944176656189748,0.9941155647529977,0.8410222369731164,0.3269230769230769,0.9390357625089356,4.3658742196087506,23.172302105387907
100,N,0,16.666666666666668,0.9747672868921624,0.9751699961108778,0.8119565217391305,0.277456647398844,0.905447138700291,3.8458503589465614,18.969894018764677
100,N,0,16.666666666666668,0.986370161433786,0.9847458422154746,0.8056142469061273,0.3197026022304832,0.9460908114954781,4.078732546949665,20.634771675119357
100,N,0,22.22222222222222,0.9640958395942816,0.9672524395515029,0.8578294965848722,0.27210884353741494,0.9558687466003439,3.767849667909372,17.1856910366715
100,N,0,19.444444444444446,0.9846325536737113,0.9832626574174558,0.806441525953721,0.3216266173752311,0.9580639857709755,4.120206022618943,20.781140365538157
100,N,0,16.666666666666668,0.9943773846830801,0.9943572292243584,0.8205359831376091,0.3014705882352943,0.9322651109997119,4.163070066458286,21.461102808991786
100,N,0,19.444444444444446,0.992378933079549,0.9928443085198927,0.8819858156028368,0.304054054054054,0.9451855251269716,4.143733934222619,20.795793437128044
100,N,0,25.0,0.9043828373637985,0.9110897966392505,0.8628778718258766,0.3192982456140351,0.9580316440996621,3.6117261616162497,16.011540548924476
100,N,0,19.444444444444446,0.9926559214995939,0.9915140961763894,0.9099611901681759,0.32565789473684215,0.9165240484493065,4.095738176495076,20.756938337076775
100,N,0,19.444444444444446,0.9864290538111489,0.9858419305207481,0.8818107888316616,0.2773972602739727,0.9353059595222957,4.021814536298309,19.851812484883826
100,N,0,19.444444444444446,0.9883189811465748,0.9875184652186182,0.8804123711340205,0.2770700636942675,0.9372492547481643,4.098677174457085,20.51734260646114
100,N,0,19.444444444444446,0.9925054842284692,0.9919752360268091,0.8881940970485244,0.3031250000000001,0.9379352731306796,4.148248033122026,20.799248177279583
100,N,0,16.666666666666668,0.992463885879549,0.9932869792340482,0.8480575539568345,0.30370370370370364,0.9040128076637727,4.0466925558954525,20.904952138630485
100,N,0,22.22222222222222,0.957256227948893,0.9587056984707709,0.886548488008342,0.2912912912912913,0.9441092664486468,3.7242587872987962,16.829710897246027
100,N,0,19.444444444444446,0.9950637355938594,0.9946516174143505,0.8838808250572957,0.28938906752411575,0.9294530045250017,4.042971328675448,20.159820549151167
100,N,0,19.444444444444446,0.9944825223274296,0.9948325833532792,0.8540525739320922,0.30402930402930406,0.8872108690770267,3.967935935667533,20.277196162116766
100,N,0,19.444444444444446,0.9835022258705276,0.9859610659703826,0.8586878154289835,0.2445255474452554,0.8893022033159269,3.6251168851853457,17.2116260968321
100,N,0,19.444444444444446,0.9922495739472886,0.9921440012289652,0.8783585735222277,0.28719723183391,0.8966082108222736,3.779661708085461,18.34719996289243
100,N,0,16.666666666666668,0.9893690334533121,0.9905460373059592,0.8717499269646508,0.3416370106761565,0.9086529404524776,4.26485822367445,22.825383538468195
100,N,0,19.444444444444446,0.9933258789022648,0.9932030513234614,0.8896017107725206,0.31407942238267145,0.9125103822157739,3.8943076180340377,19.002753967374353
100,N,0,16.666666666666668,0.9921178598386166,0.9929148863550599,0.8276999175597691,0.29259259259259257,0.8895409149938398,4.00746652802944,20.708629961681588
100,N,0,16.666666666666668,0.9889880109189838,0.9903123366482195,0.8184238551650692,0.3003663003663004,0.896794868617372,3.9412494412959487,19.96042710699727
100,N,0,16.666666666666668,0.9927383536974873,0.9928410210490076,0.8495038588754137,0.3032367972742758,0.92801460462538,4.151762282235885,21.23567077990976
100,N,0,16.666666666666668,0.9853286366020544,0.9855387175902067,0.8771459227467812,0.3224755700325732,0.9237124153186219,4.232033528803085,21.95326920157193
100,N,0,19.444444444444446,0.9951082781989579,0.9952470668803786,0.875095785440613,0.31045751633986934,0.9244705034116782,4.038560817774727,20.166748282646665
100,S,0,19.444444444444446,0.9900076451181321,0.9918994501323768,0.8492753623188406,0.34062499999999996,0.9167331105441237,3.958550780228408,19.925783033822373
100,N,0,16.666666666666668,0.9945458922557417,0.9949914655689875,0.8719866999168745,0.31081081081081074,0.92097676302223,4.183672059031871,21.70950898691916
100,N,0,19.444444444444446,0.9895855070230188,0.9917786152135399,0.8108108108108107,0.3079710144927537,0.9017365987486413,3.8376050207838306,19.137232154740683
100,N,0,16.666666666666668,0.9885123387029301,0.9888137548086785,0.8336025848142163,0.30107526881720426,0.9153738585278411,4.039108001005958,20.512316912186552
100,N,0,25.0,0.9279957159340514,0.929813850962275,0.8892889288928894,0.287037037037037,0.9646570444915253,3.736054374936144,16.565967280398606
100,N,0,19.444444444444446,0.9920002767084742,0.992064799559635,0.8650927487352447,0.3110367892976589,0.9413974313160827,4.215693674434141,21.567112549650307
100,N,0,16.666666666666668,0.9910652859458676,0.9918608104439064,0.8492637215528783,0.3287671232876712,0.9229676961306352,4.191235594474254,21.754519077689224
100,N,0,19.444444444444446,0.9903805797449238,0.9904539287233696,0.8723521320495186,0.30847457627118635,0.9359627973177749,4.096836095710656,20.49341719498327
100,N,0,16.666666666666668,0.9888396118039471,0.9895834444072708,0.8687443811807012,0.3309352517985612,0.9169685376954025,4.305308544844245,23.08151239725101
100,N,0,22.22222222222222,0.9776400368268213,0.977416707791395,0.8609341825902337,0.27335640138408307,0.9413760382422538,3.9264295875791095,18.950126877740686
100,N,0,16.666666666666668,0.9896006090299942,0.9911765523454645,0.8236301369863013,0.30916030534351147,0.8864306033922078,4.0433666103217565,21.14023392223232
100,N,0,16.666666666666668,0.9858465773932676,0.9868190515997616,0.8465390279823268,0.3274647887323943,0.9315876852885071,4.296433424952268,22.60320012131965
100,N,0,19.444444444444446,0.9970302017321783,0.9973248570872941,0.8691646191646192,0.3055555555555556,0.9493822030647843,4.315834139690578,22.40723798449679
100,N,0,16.666666666666668,0.9914512141395262,0.9915080158732728,0.8678590496529632,0.3285714285714286,0.9008199400582844,4.021087716920685,20.47893723345489
100,N,0,19.444444444444446,0.9979380516641785,0.9980895424684171,0.8751458576429406,0.3285714285714285,0.9296547688706844,4.184082185782192,21.523000388260716
100,N,0,16.666666666666668,0.9855718159455654,0.984705068180606,0.8593229744728079,0.30514705882352944,0.9099221761999629,3.9678306912386283,19.92260107007771
100,N,0,16.666666666666668,0.9866990648333654,0.9892123477650437,0.8336831059811125,0.3233082706766917,0.8637340345997606,3.8874109187331976,20.11482740542493
100,N,0,19.444444444444446,0.9868538063971157,0.9899295120598638,0.8556729699666296,0.3184257602862255,0.9383422066573549,4.020608760038768,19.938337740699712
100,N,0,16.666666666666668,0.9883776628525638,0.9904301254910649,0.8480300187617261,0.32608695652173914,0.9720481153527638,4.616685652596123,25.051970357756826
100,N,0,16.666666666666668,0.9885867522544782,0.9886507380951316,0.89133387666395,0.30921052631578955,0.9367173884098466,4.192493466684053,21.314536011819417
100,N,0,22.22222222222222,0.9729776268353078,0.9721272526514675,0.8715877437325904,0.3071428571428572,0.9414596359209871,3.9726889742832467,19.252945887013162
100,N,0,16.666666666666668,0.9878034089864128,0.988527522910178,0.8462882096069869,0.31423290203327175,0.9202324414070041,4.185266198756701,21.68233112026389
100,N,0,19.444444444444446,0.9878911846107887,0.9917156449110335,0.8120339418873745,0.27572815533980577,0.8865506092001025,3.7008049036343,18.13327505973962
100,N,0,16.666666666666668,0.9838971263810191,0.9839635273700176,0.852899575671853,0.3056603773584906,0.8901627288669322,4.042829320600274,20.901215275145056
100,N,0,19.444444444444446,0.9909026761093678,0.9910591162872696,0.8831587429492345,0.29,0.948946516941288,4.0812521041003915,20.031006640791862
100,N,0,19.444444444444446,0.9913572136020876,0.9914061487313578,0.8813559322033899,0.3056027164685907,0.9259526420849366,4.073872945798689,20.44523506553958
100,N,0,19.444444444444446,0.9922286993439728,0.9920877179362125,0.8666845493562233,0.2736486486486486,0.9399860629423302,4.0881267865446915,20.45094369418344
100,N,0,19.444444444444446,0.9729567412335609,0.9718414675938679,0.8436490850376749,0.30952380952380953,0.9438777343484873,3.9707019643823993,19.68711524023654
100,N,0,19.444444444444446,0.9947310951238993,0.9955997751479483,0.8108416547788873,0.28846153846153855,0.911731248638575,4.026957599219073,20.543135666199206
100,N,0,22.22222222222222,0.9659667011147469,0.9687525124569115,0.8560804899387577,0.2755102040816326,0.9112606550022431,3.6120581823756153,16.6609227862098
100,N,0,16.666666666666668,0.979265526744232,0.9783942795932589,0.8493750000000001,0.2971014492753623,0.9529599195036056,4.156522820300206,21.023792598963002
100,N,0,16.666666666666668,0.9756756979705221,0.9746662199821552,0.8761084367874334,0.3192182410423452,0.9343068020894879,4.033940717599045,20.210349840667654
100,N,0,19.444444444444446,0.982668332390519,0.981782840529063,0.8708071278825996,0.29276315789473684,0.9407713960190335,4.047684097431211,19.930948592298023
100,N,0,16.666666666666668,0.9918004875553855,0.9916094684410598,0.8289396602226127,0.34050179211469533,0.936291665490672,4.041909318648441,20.627147690358356
100,S,0,19.444444444444446,0.9939511918442903,0.9939302567205646,0.8450664404862878,0.3172413793103448,0.9390380875184497,4.195094651468669,21.427129689850624
100,N,0,16.666666666666668,0.9913498974636251,0.9914192211716701,0.836055836055836,0.27969348659003845,0.9150734309164861,4.034269761877218,20.481686235661915
100,N,0,16.666666666666668,0.9905464026244228,0.991534984848782,0.8522099447513811,0.29545454545454547,0.8826536627190399,3.947541759355335,20.202185302286473
100,N,0,16.666666666666668,0.9919440787755414,0.9924074564005979,0.847254004576659,0.30111524163568776,0.9135303006565016,4.017101957605083,20.34405205949663
100,N,0,16.666666666666668,0.9914778718450432,0.9903428533105242,0.8162670123136746,0.2862595419847328,0.9496984318455971,4.222555482169234,21.536308380374063
100,N,0,19.444444444444446,0.9939628605794995,0.9937959271790031,0.8752070679182774,0.32542372881355935,0.9398699891657636,4.191821595109853,21.29662207513222
100,N,0,19.444444444444446,0.9882779242128696,0.9874648742099352,0.8814252336448599,0.29454545454545455,0.9331687946391639,4.053873246080456,20.189475899126503
100,N,0,16.666666666666668,0.9888957577763102,0.987847404868614,0.8852504897844947,0.31724137931034496,0.9286467710350363,4.133938284492065,21.103305744930243
100,N,0,16.666666666666668,0.989023127560945,0.9892197149951045,0.8458104395604394,0.31417624521072796,0.9462576140590382,4.316718734521366,22.655612225062953
100,S,0,16.666666666666668,0.9838394977492289,0.9838312032779027,0.8716381418092908,0.3414634146341463,0.9354257568985934,4.15394528537818,21.128018788416124
100,N,0,16.666666666666668,0.98987531425248,0.9906958671918095,0.8208286674132138,0.31226765799256506,0.9118163228328112,4.039713226080209,20.615647270970896
100,N,0,22.22222222222222,0.9400339645543221,0.956869737057013,0.8493512734262374,0.2635379061371841,0.9359191177896644,3.5599996391379394,16.120710829893763
100,N,0,27.777777777777775,0.9274612517921229,0.9363685723005014,0.8868426437487212,0.22187981510015414,0.9612920499417409,3.5019662841675947,14.72993933673887
100,N,0,16.666666666666668,0.9949184225999013,0.995360936364712,0.8549554565701558,0.30604982206405695,0.9140473510466228,4.096909646901791,21.00731941455545
100,N,0,19.444444444444446,0.9927843865405128,0.9929619675789965,0.9046818054387441,0.3147540983606558,0.9487463587082802,4.191970627145724,21.076305221767797
100,N,0,16.666666666666668,0.9917744110898075,0.9929237573904429,0.8597721297107799,0.33450704225352124,0.9255093221089732,4.2496923561800495,22.183511026758477
100,N,0,16.666666666666668,0.9914301273544193,0.9912652156971835,0.8578212290502792,0.30851063829787223,0.9221302759927881,4.098793350670545,20.91825819661543
100,S,0,19.444444444444446,0.9942092792702442,0.994581076829415,0.854413102820746,0.2960288808664261,0.9439041032383226,4.118267232316521,20.8282642339777
100,N,0,16.666666666666668,0.9945501004028819,0.9950054118969056,0.8430176565008027,0.3144424131627056,0.943200301424603,4.354161463728802,23.152930339666813
100,N,0,22.22222222222222,0.9563279779370042,0.9620987856453597,0.868775076705216,0.18947368421052635,0.9324782904406158,3.6212878309539325,16.473851659508014
100,N,0,19.444444444444446,0.995700375477905,0.9964003666340272,0.8557199772339213,0.29545454545454547,0.9092630712227255,4.051374922802626,20.63998969502784
100,N,0,16.666666666666668,0.9796501700681799,0.9800111344640641,0.7949510561566203,0.32042253521126773,0.9047518002038925,3.992846961390015,20.274653414645602
100,N,0,16.666666666666668,0.9839135563728256,0.9838609739316654,0.8020585906571656,0.27142857142857146,0.9211397238368463,3.9638501462759654,19.72751282674014
100,N,0,16.666666666666668,0.9807532962110866,0.9829000936042412,0.859925788497217,0.35313531353135313,0.9592090576355661,4.429566282377554,23.31277791616985
100,N,0,19.444444444444446,0.9961648363350621,0.9962957971766724,0.8596821976838135,0.32352941176470584,0.938249297916142,4.1474618274234665,21.02624162634749
100,N,0,19.444444444444446,0.9934508062171109,0.9931639508115712,0.8794456066945606,0.33660130718954256,0.9200746711988701,4.122569155295645,21.01927925704738
100,N,0,19.444444444444446,0.9969066471081317,0.9966457532779943,0.8229777256740916,0.33453237410071945,0.9334757994246188,4.183603880788702,21.733877490936035
100,N,0,19.444444444444446,0.9975577741137454,0.997975811388496,0.8514666666666666,0.2941176470588236,0.9201698615571662,4.058139730207028,20.658441304061373
100,N,0,16.666666666666668,0.9913370025887623,0.9916633885020818,0.848705501618123,0.3167259786476868,0.9127814360997655,4.045705510993516,20.551783098242222
100,N,0,22.22222222222222,0.9733452554457296,0.9761992473265051,0.8658262044124267,0.24579124579124578,0.9226770213785216,3.6663050195703173,16.89172775770898
100,N,0,19.444444444444446,0.9943259977476909,0.993160119112834,0.8091373609858733,0.29197080291970795,0.9416018032002341,4.167083648110545,21.22849033693689
100,N,0,22.22222222222222,0.9561181047121813,0.9553116432078856,0.8482886216466236,0.30163934426229505,0.9486917269826444,3.7700359992373698,17.12927277970033
100,N,0,19.444444444444446,0.966765727311444,0.9712796208393567,0.880447448147285,0.21036585365853655,0.958921551533409,3.8336056965296166,17.89349703327322
100,N,0,16.666666666666668,0.9835628250897116,0.9820244576915913,0.887309897781102,0.2999999999999999,0.9162556143915335,4.0475675249923775,20.41961210985955
100,N,0,16.666666666666668,0.9909376698599676,0.9921954650087366,0.8656865188138549,0.32999999999999996,0.9058959811920675,4.0496464304750095,20.58524308686548
100,N,0,19.444444444444446,0.9946926630425363,0.9948363748042406,0.8677264547090582,0.2972027972027971,0.9421584694505813,4.17944844085456,21.29172094255563
100,N,0,16.666666666666668,0.9901536639103187,0.9909003259901098,0.8479674796747967,0.3170731707317072,0.9209951956689313,4.100795375636181,20.97570179529336
100,N,0,19.444444444444446,0.9941703669441123,0.9937993028057336,0.8265455610899501,0.30740740740740746,0.9296927890734435,4.039006237000709,20.43382658980558
100,N,0,16.666666666666668,0.9853394194043311,0.9856941391883296,0.8291925465838509,0.30597014925373134,0.9077493727607815,4.03837168312538,20.62072305475516
100,N,0,16.666666666666668,0.9847454397823293,0.985257371956933,0.8313183649971215,0.32129963898916963,0.9106051328884691,4.15210506333747,21.718781820136147
100,N,0,16.666666666666668,0.9849422697462652,0.9836129512887131,0.8328105395232122,0.30313588850174217,0.9635972513253201,4.299753429540685,22.029535941316542
100,N,0,22.22222222222222,0.9709487387311291,0.9698059416831072,0.8703876693134048,0.3354037267080746,0.946369629419671,3.9813293952602358,19.012803704169812
100,N,0,19.444444444444446,0.9971093518229718,0.9971697132654408,0.8655703471678412,0.3054662379421222,0.9376514060107359,4.163260928730777,21.198104568855076
100,N,0,16.666666666666668,0.9942183250089329,0.9945596927396443,0.857844474761255,0.3066666666666666,0.9297762852775678,4.120706437898621,21.26572722690714
100,N,0,19.444444444444446,0.9963670323398025,0.9964170196398451,0.8754794924756565,0.2937062937062937,0.9382467472506186,4.210924896426368,21.632686989732864
100,N,0,19.444444444444446,0.9978054287429292,0.9977563183445928,0.8754853022739877,0.3058823529411765,0.9312824014047307,4.167677595067484,21.412032386941295
100,N,0,16.666666666666668,0.9859343148813332,0.9880801312479844,0.8347490347490347,0.290566037735849,0.8638429964470098,3.754487664184061,18.74595259147362
100,N,0,16.666666666666668,0.9859305161061528,0.9864676581762437,0.8145413234876456,0.31617647058823534,0.9016611818384446,4.101421121668961,21.3717307789575
100,N,0,19.444444444444446,0.9864765045320769,0.9853472317211487,0.801956715090424,0.2625899280575539,0.9602814741674877,4.067852516097406,20.26400297676235
100,N,0,16.666666666666668,0.9843222987600719,0.9833940956941419,0.8162579778300302,0.34545454545454546,0.9513347605310938,4.489174665433296,24.19519719070501
100,N,0,19.444444444444446,0.9658280851231096,0.9734521687831311,0.8447957839262187,0.29692832764505117,0.948425852897747,3.9113242354198454,19.095437799324905
100,N,0,22.22222222222222,0.9743830559397909,0.9742191034033835,0.8989851309889072,0.26198083067092653,0.932072459959817,3.882658774947066,18.499519343642675
100,N,0,16.666666666666668,0.9917654393633855,0.9925138606638806,0.8495270851246775,0.3249097472924188,0.9119044071785524,4.16394647898162,21.845101004721347
100,N,0,19.444444444444446,0.9933155783141893,0.9938724156233901,0.8488672211069687,0.2961538461538461,0.9033409559930838,3.98974051195684,20.244958180803906
100,N,0,16.666666666666668,0.9777785302303933,0.981069545293273,0.8099512695562964,0.31835205992509363,0.8571582524858786,3.803036097511027,19.56156746253054
100,N,0,19.444444444444446,0.9912942431086973,0.9925793053662896,0.8204283360790773,0.30370370370370364,0.9173437849290969,3.925227843181077,19.82592944889755
100,N,0,16.666666666666668,0.9809603305553802,0.9805341953466773,0.7749801219188973,0.2777777777777778,0.9081615796001192,3.843138789799488,19.229067943560892
100,N,0,16.666666666666668,0.9891768556765157,0.9883168614283682,0.8081328751431844,0.30465949820788535,0.925307404275879,4.131173436082164,21.13239493982176
100,N,0,16.666666666666668,0.9911805877242991,0.9909685425740357,0.8156487475372926,0.32911392405063283,0.92213955102149,4.060615202823894,20.565745186650304
100,N,0,16.666666666666668,0.9923595143726904,0.9923978782983399,0.8362369337979094,0.3137254901960784,0.9547486330479831,4.317604286956151,22.30840519488811
100,N,0,16.666666666666668,0.9918858072569675,0.9901426696810196,0.8027702499247216,0.3357142857142858,0.9415277636258352,4.254620863902609,22.08971354535969
100,N,0,19.444444444444446,0.9859313646085135,0.986308279505357,0.8658850443237059,0.3,0.961896799998466,4.140220657633138,20.35191870731493
100,N,0,16.666666666666668,0.9926685726451172,0.9947056082493521,0.8604780433574207,0.35785953177257523,0.9296008209970886,4.327691494212739,22.94541279626487
100,N,0,19.444444444444446,0.9917297726209919,0.9920522015843124,0.8896479243300052,0.3127035830618892,0.9464635128913446,4.07424207556945,20.079307259234408
100,N,0,19.444444444444446,0.9964124108434075,0.9962800575688271,0.8665764546684709,0.3061224489795919,0.9296802741872794,4.117855483365897,21.00827755429831
100,N,0,16.666666666666668,0.9948047650916818,0.9952998974727073,0.8814624393030562,0.34006734006734013,0.9323154734238113,4.315543021912059,22.704420792542905
100,N,0,16.666666666666668,0.9838089989687776,0.9845174960605417,0.8596673596673595,0.3248175182481752,0.8725745980210265,3.887670836965344,19.791022429941687
100,N,0,16.666666666666668,0.9855143017291972,0.9869465732527042,0.8462192013593884,0.32363636363636356,0.903550820324512,4.164182697892119,21.94161358568494
100,N,0,16.666666666666668,0.971094729315872,0.9730438855173404,0.8114602587800369,0.30740740740740746,0.9026008433150492,3.827384048453576,19.34835918404394
100,N,0,22.22222222222222,0.947085026452159,0.9516247480714132,0.8637568835406892,0.279863481228669,0.89823528755295,3.3967369486459895,15.038294641447905
100,N,0,19.444444444444446,0.9664306527299447,0.9733627580564692,0.8281826568265682,0.2733333333333334,0.9237006753964799,3.7497392797765783,17.894724457849097
100,N,0,22.22222222222222,0.9726568119095681,0.974395273981231,0.8681067344345617,0.2243589743589744,0.9652263764327144,3.925239636366148,18.35318140980664
100,N,0,16.666666666666668,0.9906355023545416,0.991192450034642,0.8188086045228902,0.28676470588235287,0.903495972032224,4.0344620983348864,20.625070965787774
100,N,0,16.666666666666668,0.9904412534779883,0.9894876934715057,0.8101391650099404,0.3113553113553113,0.9446539448399961,4.428498469362854,23.882332119128982
100,N,0,19.444444444444446,0.9890903482126022,0.9889803420121708,0.8536842105263158,0.2789115646258504,0.9374790101896884,3.992402580136753,19.493069669569167
100,N,0,16.666666666666668,0.9899089599553521,0.9904226287513935,0.8478398983481575,0.3275862068965517,0.9599820351006494,4.399493087870843,22.939090998224327
100,N,0,19.444444444444446,0.9814980746472891,0.9806993915561637,0.8218558034270933,0.30249110320284694,0.9739033441601717,4.222818900113447,21.427628906864886
100,N,0,19.444444444444446,0.9845398900738472,0.984772956893097,0.8722406181015452,0.3056910569105691,0.9650816812675608,4.105250680221291,20.030263504310586
100,N,0,19.444444444444446,0.9824528919559982,0.9811643011082635,0.8458237986270022,0.31292517006802734,0.9585847459020435,4.121715609730104,20.50680278472855
100,N,0,19.444444444444446,0.9846380981181504,0.9835430433536505,0.8606127518630969,0.30716723549488056,0.9415528948771306,4.068634235346936,20.160227402353748
100,N,0,19.444444444444446,0.9966176785217831,0.9966869728178287,0.8764489680520214,0.33217993079584773,0.9328953185261971,4.125320705262119,20.84107923869738
100,N,0,16.666666666666668,0.990967141871167,0.9917916221624674,0.8590935502614758,0.31833910034602086,0.9298213375108536,4.189216618252961,21.779188991332493
100,N,0,19.444444444444446,0.9899602232234133,0.990658513178937,0.8304862023653088,0.25925925925925924,0.9154743223563148,3.7693150051391306,18.211125496744724
100,N,0,16.666666666666668,0.9914664662159314,0.9918269828778714,0.8691396187532201,0.31205673758865254,0.8722808334375822,3.9217144424012242,20.094131049222586
100,N,0,27.777777777777775,0.9177138174074764,0.9324857663202741,0.8477845683728036,0.17252396166134182,0.9335569375116506,3.3295597171425997,14.00980136729634
100,N,0,19.444444444444446,0.9905371044017102,0.991521359120672,0.8487768717568569,0.2701754385964913,0.9079993228345493,3.8065596867287583,18.48720846821894
100,N,0,16.666666666666668,0.9817298402331133,0.9822405652595034,0.8090722706304461,0.3028169014084507,0.8990437922092201,3.951662115594891,20.247055493216575
100,N,0,22.22222222222222,0.96370973055227,0.9720445333484191,0.8393841911764706,0.24190800681430996,0.9327573500723954,3.631994633439844,16.63451268933578
100,N,0,16.666666666666668,0.9956133702780099,0.9955828771581575,0.8382827630729504,0.33212996389891697,0.9481623213656069,4.404865796754303,23.508568454533698
100,N,0,19.444444444444446,0.987689073613225,0.987847576727953,0.8371444506413831,0.2815884476534296,0.9313486353774123,3.9990421697365797,19.817775238258246
100,N,0,19.444444444444446,0.9723810860106652,0.9745649332267083,0.8517060367454068,0.29139072847682135,0.9601889119122267,3.9383750049242843,18.73551347162085
100,N,0,19.444444444444446,0.9899429640460672,0.9897504184774668,0.8737486095661847,0.30921052631578955,0.9504111700546141,4.227962846764542,21.35556086382407
100,N,0,19.444444444444446,0.9901602258862784,0.9893147089560214,0.8197962154294031,0.306049822064057,0.9591295473308096,4.076419107911098,20.027459385567653
100,N,0,16.666666666666668,0.9906715922857141,0.9903163578885342,0.8769562871019968,0.3026315789473684,0.9355297600995994,4.158657142274158,21.17623036679191
100,N,0,16.666666666666668,0.9856955257255695,0.985179486635675,0.85910552470038,0.30845771144278616,0.9580730410741694,4.249935918534941,21.59566815367381
100,N,0,16.666666666666668,0.9911781149667257,0.9907437260924572,0.8571428571428571,0.3152542372881356,0.9452609255080469,4.21635810413447,21.54381507763175
100,N,0,19.444444444444446,0.9965586606706672,0.9968540528203462,0.8878858474082701,0.3234323432343234,0.9418343533046234,4.34657606527244,22.850396326762404
100,N,0,16.666666666666668,0.9719298613171607,0.9714911116511145,0.8286964676461394,0.3298611111111112,0.9622329906698831,4.199980055040921,21.864730773062302
100,N,0,19.444444444444446,0.9960956309994848,0.9963602586330299,0.8673239436619719,0.3129251700680273,0.943927027729958,4.171599012615024,21.086581510269784
100,N,0,16.666666666666668,0.9881287954233016,0.9877404666866153,0.8362068965517241,0.35943060498220636,0.9125693160813307,4.251262818345737,22.680882366392215
100,N,0,19.444444444444446,0.9740124301798517,0.975746890026142,0.8211920529801324,0.2664233576642336,0.90437501426387,3.7753871337544522,18.523713264852034
100,N,0,16.666666666666668,0.9785961397913797,0.978779056622807,0.8504509746872273,0.3333333333333333,0.9119482114241605,4.261377125838623,22.837873542974222
100,N,0,16.666666666666668,0.9907289723315139,0.9910966832017536,0.8375579176887434,0.2898550724637682,0.9054756016647565,3.9553486939148197,20.061839147822614
100,N,0,16.666666666666668,0.9815236510685134,0.9810368921264193,0.8271380296334806,0.3235800344234079,0.9179362397738275,3.9081694945761014,19.711532160868583
100,N,0,19.444444444444446,0.994740547947604,0.9960360061565794,0.8294020844761384,0.3295454545454546,0.9041768177822427,3.9079439775111897,19.695893056875452
100,N,0,19.444444444444446,0.9822630534342104,0.9844474588703774,0.865179677819083,0.2989690721649485,0.9260700088914261,3.8028010165167534,18.179700696142213
100,N,0,22.22222222222222,0.9252621449277614,0.933827679134187,0.8446752098983649,0.2866894197952219,0.9325180944370205,3.5075510088645276,15.616080729321851
100,N,0,16.666666666666668,0.9897569119074553,0.9891458092126753,0.8062652068126522,0.30882352941176483,0.9247030422736127,4.27839980316376,22.688717190634627
100,N,0,19.444444444444446,0.9951470494919431,0.9949248118444451,0.8316478286734089,0.28776978417266186,0.9436520576775403,4.151508255654835,21.014024480534662
100,N,0,16.666666666666668,0.9777050712588164,0.9784566370597909,0.8414057885410513,0.3529411764705882,0.9522909257383144,4.307993372208862,22.714632267914556
100,N,0,16.666666666666668,0.9855270867035755,0.9840549425087549,0.7951088577393378,0.32269503546099293,0.9537998861685407,4.167450694790438,21.202075106957555
100,N,0,19.444444444444446,0.9707581882786498,0.9686718665920728,0.8420123565754634,0.3127147766323024,0.9550124639739176,4.16881560000163,21.276674990239293
100,N,0,19.444444444444446,0.9960706368505844,0.9956970239253755,0.8217765042979943,0.3273381294964028,0.9377872812898428,4.152040548096257,21.128466037327705
100,N,0,19.444444444444446,0.9928352580581753,0.9930157396585967,0.8627814569536425,0.3139158576051781,0.9489472276357521,4.1271920325310445,20.485361712313722
100,N,0,16.666666666666668,0.9902425325105916,0.9909792552261384,0.8370190851257195,0.33774834437086093,0.9508373364832543,4.488858656194033,24.15487314048184
100,N,0,19.444444444444446,0.9939736054684366,0.9939816735279451,0.8658188424604205,0.3259493670886076,0.9412756719742262,4.163537506452669,21.010719207193297
100,N,0,16.666666666666668,0.9936789806191924,0.9934049685670534,0.866012204828867,0.32087227414330216,0.9445922218264079,4.223626107676622,21.631978498851463
100,N,0,16.666666666666668,0.9866129395829843,0.9874799866974175,0.8694530443756451,0.3173076923076923,0.9259359433374845,4.178928540672176,21.504557392825802
100,N,0,19.444444444444446,0.9897366421749805,0.989400132666485,0.8600995546240503,0.27702702702702703,0.9401282510083082,3.963762815239965,19.38371598725793
100,N,0,19.444444444444446,0.9963439550316664,0.9973459790405257,0.8557527189467657,0.3448275862068966,0.9311727189308525,4.249207416007508,22.199432376659292
100,N,0,22.22222222222222,0.9737974018065356,0.9737336447022318,0.8965008431703204,0.28571428571428564,0.9517597091049895,3.8474544059553875,17.77030616161373
100,N,0,22.22222222222222,0.8779504072370702,0.8783071141565747,0.5742255990648744,0.387858347386172,0.8216885842049616,2.5359393013573848,11.821957881380133
100,N,0,13.888888888888888,0.9831393478623112,0.9852709974571132,0.8221830985915493,0.3256880733944954,0.8842201124132588,3.9791037268653002,21.360928839684806
100,N,0,16.666666666666668,0.9883556684455075,0.9873181103096584,0.8174892348459755,0.28979591836734697,0.9259655043717641,4.069885299878708,21.064139692021513
100,N,0,16.666666666666668,0.9882232562259904,0.9883378478837044,0.8182717678100264,0.3279352226720647,0.9119157475065515,4.179502089718309,22.31449102233431
100,N,0,16.666666666666668,0.9821096396199138,0.981014725461956,0.7985955952760933,0.3134920634920635,0.916068354406906,4.083846538566793,21.51919859538639
100,N,0,19.444444444444446,0.9832230501298537,0.9866869490399431,0.842204809510943,0.3100775193798449,0.9176310431535051,3.744873892629166,17.958189130449895
100,N,0,16.666666666666668,0.9886705117172491,0.9893148449208131,0.8352395672333847,0.3227091633466136,0.8971634465681115,3.980206716110052,20.555418758006297
100,N,0,16.666666666666668,0.9820152248103261,0.9812885557312042,0.8232695139911634,0.2890624999999999,0.9039647160571418,3.8903760134342953,19.72464464474798
100,S,0,13.888888888888888,0.9340645487560014,0.9699651056413173,0.6435816719132564,0.3448275862068966,0.9612534228012298,4.5642266536622556,25.019239574496133
100,N,0,25.0,0.9477439122869534,0.9515147661479455,0.8778536126147329,0.23920265780730898,0.9575993319859527,3.578597311733675,15.629706096020742
100,N,0,16.666666666666668,0.988148405425523,0.9882817322956419,0.8204264870931537,0.3214285714285715,0.9167661418940735,4.115317462254662,21.23849240105181
100,N,0,16.666666666666668,0.9824916499925289,0.9849727586791336,0.8023399014778324,0.3428571428571429,0.9631868264339272,4.1927363980851675,21.82667814248519
100,N,0,19.444444444444446,0.9925477915745226,0.9936466082701962,0.8336787564766842,0.2934782608695652,0.891826967073595,3.8409767695402373,19.02715295693914
100,N,0,16.666666666666668,0.9779785824376608,0.9811273969035159,0.8036542132533406,0.3370370370370369,0.883028797038731,4.022382333711243,21.103009003499213
100,N,0,16.666666666666668,0.9739189886985078,0.9766895508584158,0.758887171561051,0.3500000000000001,0.9665749764424701,4.322697682302888,22.791192065378716
100,N,0,16.666666666666668,0.9943465318234228,0.9953100437360274,0.847183317771553,0.3381294964028777,0.9358977927464026,4.309297115295869,22.90205790252502
100,N,0,16.666666666666668,0.9923377680438618,0.9920268144613696,0.8515792701625269,0.31640625,0.8916226586059945,3.9861120565064443,20.724243969828482
100,N,0,16.666666666666668,0.9829540124776724,0.9831886816126791,0.8500147623265426,0.31672597864768676,0.9243884268249493,4.170374823259718,21.69642331414139
100,N,0,19.444444444444446,0.984759849465465,0.9864382037666832,0.8348372983319662,0.3137931034482759,0.9463496690779722,3.9724344023614604,19.597221164026244
100,N,0,19.444444444444446,0.9920051302379934,0.9919213117920916,0.8512709572742022,0.3092783505154638,0.9362826327991131,3.97577137855327,19.51296669077604
100,N,0,16.666666666666668,0.9810719783683458,0.9814822614823178,0.7898406374501992,0.3415637860082304,0.9296430469965151,4.038129966129993,21.53563796824989
100,N,0,19.444444444444446,0.9941972128032448,0.9944850070160499,0.8683149690943294,0.2962962962962963,0.8875719984963683,3.868112448959908,19.474298662186033
100,N,0,16.666666666666668,0.9711599708914745,0.9769420796731698,0.7659641396665617,0.3159851301115241,0.9657659260697137,4.188551046585387,21.97505051643254
100,N,0,16.666666666666668,0.9945220435422906,0.9944448656337956,0.860814322841467,0.30960854092526696,0.9284259928653544,4.1908054150884935,21.631594088914795
100,N,0,19.444444444444446,0.9950192685153264,0.9952221004146881,0.8542056074766357,0.28719723183391005,0.9291538170831777,4.0070269252489,19.926501330837528
100,N,0,19.444444444444446,0.9969542697010714,0.9971468215724646,0.8823529411764706,0.32952691680261004,0.9312080042871695,4.194249316117936,21.576939424855443
100,N,0,19.444444444444446,0.9956927034677082,0.9960159727449147,0.8714000570287996,0.30615640599001664,0.9478643406696784,4.211324306546073,21.48839996703659
100,N,0,22.22222222222222,0.9715021708472199,0.9773357485209003,0.8855234915335083,0.27156549520766776,0.9511129782691129,3.838997353955582,17.96878962700041
100,N,0,16.666666666666668,0.9913448496681362,0.991256317674623,0.8304898183819484,0.30388692579505294,0.9224109301988372,4.115971434999302,21.084071728242492
100,N,0,25.0,0.9640688756832088,0.967447832062148,0.8540696385007761,0.24414715719063546,0.935939083245205,3.6082722769881244,16.103850716506205
100,N,0,19.444444444444446,0.9954833230000006,0.9956721120719473,0.8556198598842522,0.34375,0.9461590448299168,4.299165801189217,22.352817572888405
100,N,0,16.666666666666668,0.9877315363782689,0.9877375387258522,0.8772553307818481,0.2847682119205298,0.9448770704780529,4.095539391350493,20.372496826921633
100,N,0,16.666666666666668,0.9870155982424951,0.9862903358873673,0.8466222093360394,0.33222591362126247,0.9459097623697706,4.334267327881729,22.68963203414495
100,N,0,19.444444444444446,0.9930767972643348,0.9931552184482907,0.8718766613503455,0.3032258064516129,0.9499594689532181,4.129600764227049,20.514012101509987
100,N,0,19.444444444444446,0.9941439044753337,0.9937974053253075,0.8465332172903974,0.29965156794425085,0.9457170275795885,4.20734101341804,21.36860345035669
100,N,0,16.666666666666668,0.99236612680333,0.992729021636809,0.8371821104940075,0.31636363636363635,0.9251444278440254,4.1904377644121675,21.679764994236194
100,N,0,16.666666666666668,0.9883687595553466,0.9883213348463515,0.8547971667739858,0.343859649122807,0.9633783970839292,4.307062394385273,22.030458050238373
100,N,0,22.22222222222222,0.9589686463530227,0.9599536308052408,0.8712544438801421,0.30000000000000004,0.9552496625241799,3.7816745897624577,17.249846380079937
100,N,0,19.444444444444446,0.99013103726271,0.9916858646433424,0.8188478188478188,0.29657794676806093,0.9534865534413081,4.266972146664048,22.284675069725267
100,N,0,19.444444444444446,0.9871762293082915,0.9897071777828184,0.8280068309343742,0.3223443223443223,0.8629386434843807,3.62854238735113,17.802222214816517
100,N,0,25.0,0.9550459003516671,0.9581691773564788,0.8889834113143343,0.263843648208469,0.9194391544047308,3.508145736859317,15.546341636968958
100,N,0,16.666666666666668,0.9844768315021071,0.9834648968291412,0.8490230905861457,0.30107526881720426,0.9277863266652013,4.084138183436044,21.225243463307596
100,N,0,19.444444444444446,0.9892462946281128,0.9922949768023657,0.8500291205591148,0.3120567375886525,0.9294779046032281,4.262154369688199,22.49034967339752
100,N,0,16.666666666666668,0.9877398589819377,0.9888107712375797,0.8347131874630395,0.3214285714285714,0.9310915623838437,4.213812370460266,22.091069515228902
100,N,0,16.666666666666668,0.9946364711001362,0.9950028581492801,0.8500861573808156,0.3079847908745247,0.8902893842569833,4.006203071820415,20.680807819215747
100,N,0,16.666666666666668,0.9862479843141918,0.985952860173528,0.8306244653550041,0.32971014492753625,0.9002712332579761,4.1821946544909245,22.171949684429446
100,N,0,19.444444444444446,0.9389392511609739,0.9404434122415178,0.8522759005864283,0.3170731707317073,0.9539823781767215,3.89453109942568,19.05305453330999
100,N,0,19.444444444444446,0.9889303407420444,0.9911414983015432,0.8424345847554039,0.335593220338983,0.9408861216386933,4.3377919618454905,23.038628421058092
100,N,0,16.666666666666668,0.9858968047347902,0.9850037557702168,0.7969696969696969,0.31884057971014496,0.9550622018980184,4.119190930281628,21.094609083043785
100,N,0,16.666666666666668,0.9804067711041416,0.9820458108641664,0.7891585250551529,0.31411530815109334,0.9251610282237435,4.169373050540867,22.11551566765478
100,N,0,16.666666666666668,0.9869512028380651,0.986715737081838,0.8135642135642136,0.30223880597014935,0.9213925226150413,4.021308557735382,20.5251518930609
100,N,0,13.888888888888888,0.9746507380568523,0.9795231549900579,0.723785957315187,0.3312883435582822,0.94106342824321,4.141424708445859,22.2592511072533
100,N,0,16.666666666666668,0.9747441071496136,0.9817235967974285,0.7871148459383754,0.3463687150837989,0.9226946561483266,4.10481001249513,21.590683010402426
101,N,0,16.666666666666668,0.9835793207157322,0.9803572698554545,0.7340153452685423,0.23843416370106751,0.8647764422666089,3.7815463576218136,19.598484029744004
101,N,0,19.444444444444446,0.9912402445376216,0.9891283661255872,0.767803193785067,0.19798657718120805,0.9007823356010892,3.724858889678105,18.255583997548662
101,N,0,16.666666666666668,0.9891691218753598,0.9852623101699345,0.8484848484848484,0.23154848046309706,0.9004065392403191,3.98728061433439,20.591495864222768
101,N,0,19.444444444444446,0.9876890026657787,0.9840473852953666,0.7037885095753538,0.2108731466227347,0.8950670747527002,3.714282954289133,18.30781749514748
101,N,0,16.666666666666668,0.9904063677863209,0.9882487602412031,0.7003546099290778,0.23571428571428577,0.8735267254195126,3.643056912218677,18.631152473211355
101,N,0,19.444444444444446,0.956600388897009,0.9566060397322883,0.6536239985094094,0.2276119402985074,0.7868694259508023,2.9465671275287093,13.939901220562692
101,N,0,16.666666666666668,0.9863705443757712,0.9839689138371819,0.6877083333333333,0.21869488536155213,0.8671573946115102,3.514261585767882,17.571627995289386
101,N,0,16.666666666666668,0.9852743357381712,0.9829307325683595,0.7444539249146759,0.22885572139303478,0.8713853610539164,3.751242539812716,19.09676548445537
101,N,0,16.666666666666668,0.9846980057845782,0.9811044898937732,0.8117001828153566,0.23310810810810806,0.8899255832488675,3.775622799281838,19.12552066142407
101,N,0,16.666666666666668,0.9859038377230261,0.9823607109785801,0.6677268871925359,0.2377622377622376,0.8564646392024349,3.709111777529529,19.48448315307749
101,N,0,16.666666666666668,0.9768776649023551,0.9783085017221975,0.7829076620825147,0.20343839541547282,0.9132808276224849,3.804763205367526,18.843775272149433
101,N,0,16.666666666666668,0.9905056465700861,0.9884767803003733,0.6856888888888889,0.22156573116691292,0.8551436717507159,3.616704314172685,18.37488698696109
101,N,0,16.666666666666668,0.9748874953435384,0.9722449006088654,0.6728891933550264,0.211864406779661,0.8506075446300728,3.5292226800768605,17.7294604322794
101,N,0,16.666666666666668,0.9753370545950865,0.9709659846633012,0.8303802938634399,0.2204968944099378,0.8915826981791837,3.8434480966172777,19.582581596856937
101,N,0,13.888888888888888,0.9890445721758037,0.987291384760726,0.6777241656614394,0.22602739726027388,0.8539023870510417,3.4996005581730865,17.545442557303392
101,N,0,16.666666666666668,0.9909665748170279,0.9916631983380575,0.6971739130434783,0.2255639097744362,0.8476081225950458,3.444569559637068,17.258441902449867
101,N,0,16.666666666666668,0.9968774384626259,0.9957246031963587,0.774010013654984,0.21164021164021168,0.893911847028535,3.718438436064863,18.536591939701253
101,N,0,16.666666666666668,0.9858893287775389,0.9810135555200536,0.6711880261927035,0.20912547528517123,0.8556025779326752,3.601173154917647,18.27894816699325
101,N,0,19.444444444444446,0.9891545909041005,0.9865882857862537,0.7282107574094404,0.20102214650766603,0.8941902059684451,3.753068753589428,18.72198518007108
101,N,0,19.444444444444446,0.9896311411686292,0.9873557257504159,0.7359980852082335,0.20962199312714758,0.908712770540944,3.942246163720363,20.09971355703184
101,N,0,16.666666666666668,0.9918614482480882,0.9897377747022329,0.7274759669125866,0.19931271477663215,0.9085452148694966,3.7756814345755907,18.619331244800524
101,N,0,16.666666666666668,0.9895082729554346,0.9874537734955918,0.7621125143513203,0.22569444444444453,0.8825162940840116,3.8275858602454007,19.590616554360935
101,N,0,19.444444444444446,0.9881675069822102,0.9854469325167238,0.7537053182214473,0.19410745233968796,0.8952042532649568,3.614410502794213,17.723647439926335
101,N,0,16.666666666666668,0.9951099628620831,0.9941757630142226,0.760008896797153,0.21404682274247494,0.9072498979090957,3.7714447226278573,18.813335785727382
101,N,0,16.666666666666668,0.982132614788632,0.9779314418724899,0.7546538381091822,0.2038834951456311,0.8887521564339488,3.7737057629747746,18.989557590434536
101,N,0,16.666666666666668,0.996623458870319,0.9970495058843379,0.7207255747126436,0.22089552238805976,0.8783363461501349,3.593877537031426,17.973929633091227
101,N,0,13.888888888888888,0.9861521222007569,0.9836109681474124,0.7393867924528301,0.23826714801444054,0.8682866974312465,3.8228180649659986,20.24028686668274
101,N,0,16.666666666666668,0.983470783386491,0.9819623168120607,0.8301097752221641,0.23018867924528308,0.8947081124532894,3.8042118919597363,19.27396758193319
101,N,0,16.666666666666668,0.989218121633941,0.9876540927320616,0.751488095238095,0.22399999999999998,0.8839156998015043,3.8426269491489324,19.736684254329347
101,N,0,22.22222222222222,0.8547053502469033,0.8839677267881172,0.7394574880328246,0.3106796116504854,0.7694760022993804,2.650098788562187,11.370453725765048
101,N,0,22.22222222222222,0.9797444053550174,0.9774488885867498,0.6579140653690781,0.24701195219123517,0.8485215762976128,2.9934995794614667,13.15026947057723
101,N,0,16.666666666666668,0.983485120400468,0.981737247947481,0.6395752895752895,0.23943661971830998,0.8455664918765583,3.374250637917536,16.720330309905982
101,N,0,16.666666666666668,0.9926256906191208,0.9920827685797008,0.7591348173036537,0.22291021671826616,0.9255243350854827,3.809016679283262,18.944638090793923
101,N,0,16.666666666666668,0.9877535451260165,0.985161522701859,0.7452419169915158,0.2214285714285713,0.9067548370363143,3.6071406347752344,17.852694439767028
101,N,0,16.666666666666668,0.9598441628835387,0.9504612572328164,0.6909753874202371,0.2583025830258302,0.9038827550593846,3.435934337936583,16.70184365408147
101,N,0,16.666666666666668,0.956233753413372,0.9462351775521446,0.7777247793942285,0.2547528517110266,0.9140729941146934,3.4431748966538,16.653393811603912
101,N,0,19.444444444444446,0.9607937444050102,0.9586265675421337,0.7284023668639054,0.2187499999999999,0.9061667422481718,3.540562732126008,17.504710359574077
101,N,0,19.444444444444446,0.9898340394812533,0.9878887583223694,0.8256244218316373,0.19732441471571915,0.9242602486486909,3.8642715441586124,18.984064314581826
101,N,0,16.666666666666668,0.9882257216889105,0.9858314434932685,0.8554849405913236,0.20463320463320456,0.9171942529136998,3.888736468351986,19.27007112997546
101,N,0,22.22222222222222,0.9833783731805332,0.9801993554230645,0.697883258499038,0.17808219178082196,0.916813034723302,3.602737507759902,16.86515682014548
101,N,0,16.666666666666668,0.9789258958137542,0.9745491416269246,0.7495833333333334,0.2195845697329376,0.9008390724884473,4.001178565256503,20.71736493906579
101,N,0,16.666666666666668,0.9805770436378841,0.9831256303654347,0.9058942575259296,0.2127659574468086,0.9299096513079387,4.228703592832377,21.978933834573947
101,N,0,19.444444444444446,0.8313524473300037,0.9002302645191448,0.667619256979556,0.20919175911251986,0.6389126929121672,1.7955632149762604,7.683876300058898
101,N,0,19.444444444444446,0.9471264655631341,0.9404639012365621,0.6415362731152205,0.2329803328290469,0.8685431806822571,2.958496020210447,13.378818409051407
101,N,0,16.666666666666668,0.9606178168257504,0.9623303252621482,0.8052871467639015,0.23057644110275688,0.8813308640516835,3.7925211022125325,18.815329907675782
101,N,0,16.666666666666668,0.951302904353457,0.9604037299489846,0.7017620503859038,0.2365887207702888,0.8466050350764805,3.066441118600719,14.473423398827189
101,N,0,16.666666666666668,0.9637871486934474,0.949917639541796,0.5911982121368404,0.2664526484751205,0.804767468487035,3.17437302682651,15.958830843334809
101,N,0,19.444444444444446,0.9752125026800195,0.9699777461981032,0.8364444444444445,0.20327868852459008,0.9444875535980358,3.6235853859642355,17.136603408340733
101,N,0,16.666666666666668,0.9759814887131033,0.9723202643362656,0.7111020241259457,0.23090586145648312,0.8936070422030491,3.3718270987116603,16.04087393495646
101,N,0,19.444444444444446,0.9873319474023967,0.9844759811446487,0.7575984990619137,0.20699708454810506,0.9309183476570038,3.6667248240745285,17.66764687640104
101,N,0,16.666666666666668,0.9941048275123445,0.9929510273658778,0.7749999999999999,0.2164502164502164,0.9290475344547743,3.8026294433157855,18.861770146451807
101,N,0,19.444444444444446,0.9852979491745191,0.9829336374495994,0.8093434343434344,0.19938650306748473,0.9476826291387473,3.712560748390187,17.708435844834742
101,N,0,19.444444444444446,0.9896846840937241,0.9879570562088106,0.8145964626956698,0.21605839416058403,0.9450200924750708,3.785549889470427,18.386859490806792
101,N,0,19.444444444444446,0.9879523253255034,0.983978259825911,0.8208308722189409,0.20833333333333337,0.9360731215811315,3.6906803127093335,17.726906963425865
101,N,0,19.444444444444446,0.9856833665681418,0.9839630979037975,0.782806324110672,0.20204978038067345,0.9371630509910592,3.766626934261154,18.146063227920482
101,N,0,19.444444444444446,0.9818514849113461,0.9778202149150069,0.8024013024013024,0.21851289833080434,0.9391567027519792,3.5833657616691177,16.882401543548923
101,N,0,22.22222222222222,0.9228252044908127,0.9199011177132465,0.7775726036595602,0.21554770318021188,0.827699706635365,2.7249904166730157,11.803932774677856
101,N,0,16.666666666666668,0.9968419444201471,0.9962544217080396,0.7646381263198312,0.2190201729106629,0.9203958737289961,3.8493842670788463,19.295484863216647
101,N,0,19.444444444444446,0.9856984138460712,0.9833626115601656,0.7894643804136469,0.20663265306122447,0.9379100815050685,3.8862472209723253,19.190207796435637
101,N,0,16.666666666666668,0.9939013862423882,0.9936301005839057,0.7324135250680139,0.2311688311688312,0.9393856660853124,4.154720849822857,21.764863517357327
101,N,0,19.444444444444446,0.9881026609106441,0.985583844161742,0.7429210134128167,0.21787709497206698,0.915704401334701,3.820099367835168,19.037779998674196
101,N,0,19.444444444444446,0.9943534223458831,0.9925888517385146,0.7963576158940396,0.20338983050847464,0.9287996167533532,3.7479888199278086,18.230331843838467
101,N,0,19.444444444444446,0.9842783044591178,0.9800170617844923,0.8274739583333333,0.20257234726688111,0.9351396801669676,3.689989199561532,17.606024074298272
101,N,0,19.444444444444446,0.9882759172579161,0.9876017887641417,0.8330769230769232,0.20833333333333337,0.9479172051825537,3.965898028111492,19.57388539372278
101,N,0,19.444444444444446,0.9913621119213936,0.9891065394166533,0.8658723404255319,0.20512820512820507,0.934431461756522,3.9239953171966713,19.34063821206567
101,N,0,19.444444444444446,0.9874929407862332,0.9846274422949259,0.8313502327987582,0.19313850063532412,0.9388840566399603,3.783865435708402,18.134970121401967
101,N,0,19.444444444444446,0.9935461809284506,0.9918693877506655,0.8129910948140388,0.22389937106918245,0.928001704926575,3.906483902996441,19.409316133779726
101,N,0,19.444444444444446,0.9877201951931873,0.9847426880111709,0.7850652568974062,0.19109947643979058,0.9247052539803473,3.6162998022015533,16.999312739898244
101,N,0,19.444444444444446,0.989692442105062,0.9869501227569681,0.8095318573601487,0.20812182741116758,0.9308710950787683,3.7208511162750715,17.788631729371204
101,N,0,19.444444444444446,0.9817405910750032,0.9785459355560168,0.77186038143217,0.2252010723860589,0.9349549118989825,3.765522233420594,18.238524469755664
101,N,0,22.22222222222222,0.9836964571781025,0.9820764889988359,0.8016289592760182,0.19525065963060684,0.945033493585425,3.7723319387398373,17.925359390233343
101,N,0,16.666666666666668,0.9936243101045357,0.9924964537213693,0.7515539649651535,0.2155172413793104,0.9239692152009676,3.747997386699751,18.20688148321284
101,N,0,16.666666666666668,0.9910113593005742,0.9896917888755853,0.8063820612332901,0.23692307692307696,0.9315008996711548,3.941911968761605,19.877738627039502
101,N,0,16.666666666666668,0.9890298169647517,0.9873043577360237,0.7407605784681308,0.23872679045092832,0.9013603461468144,3.9609820906423034,20.394128513614284
101,N,0,19.444444444444446,0.9889733414534333,0.9858165801588542,0.8002620741295394,0.2060085836909873,0.9249277691127717,3.6801494404267134,17.81086659886289
101,N,0,19.444444444444446,0.9930496961481173,0.993208182547527,0.8000777907429016,0.21024258760107817,0.9431160149054644,3.948162838757377,19.55609595924497
101,N,0,19.444444444444446,0.982618848635309,0.9817760101789651,0.733027684711691,0.21525885558583113,0.9171020771460604,3.805111198332157,18.48080949577442
101,N,0,19.444444444444446,0.9867225860124109,0.9849198467422479,0.8169357867067218,0.19783197831978316,0.9443230154930531,3.835192719827094,18.492881174177683
101,N,0,19.444444444444446,0.9938584553853803,0.9928007134315608,0.7876004592422503,0.2181372549019608,0.929686925294948,3.829370109944586,18.70864045268354
101,N,0,22.22222222222222,0.9852003234210509,0.9840592901153424,0.7647363872082973,0.23664122137404586,0.9301553718567919,3.8938467576822826,18.974502240736363
101,N,0,19.444444444444446,0.9910567432914371,0.98880856160522,0.719930941876079,0.18965517241379315,0.9302250046452288,3.768441276103045,18.269710772162185
101,N,0,19.444444444444446,0.9866829588107952,0.983940408473049,0.7692158385093167,0.21052631578947356,0.9280671729596747,3.7456219626832765,18.245050488828316
101,N,0,19.444444444444446,0.9900288642557924,0.9869676490340124,0.8214709371293001,0.20256776034236812,0.9307949756157412,3.8572441793529006,19.07617735407201
101,N,0,16.666666666666668,0.9942971926917163,0.9927787154800266,0.793451446512671,0.22366288492706643,0.9116146347048935,3.9333809040412855,20.268133744067008
101,N,0,16.666666666666668,0.9932202088601434,0.9926878973542503,0.8014996875650906,0.21021897810218976,0.9408036603223389,3.917065300217379,19.52907477442277
101,N,0,13.888888888888888,0.9877524467902616,0.9850732922619064,0.7137042062415196,0.24742268041237114,0.881085795845007,3.821506896019484,20.095445956737702
101,N,0,16.666666666666668,0.9922665621180783,0.9899073919891631,0.8001250521050437,0.2276923076923077,0.9221269272791375,3.796391460113505,18.977763570664184
101,N,0,16.666666666666668,0.9908537318297352,0.9883116159303389,0.8088791558829385,0.22784810126582283,0.9188797878221295,3.915679610952451,20.004839027301866
101,N,0,16.666666666666668,0.9909860542237054,0.9881100519464401,0.7811087318581966,0.23420074349442366,0.8913796072812953,3.6355765047709143,17.997645014117474
101,N,0,19.444444444444446,0.9852258790788437,0.9798500502702884,0.8124231242312423,0.19620253164556956,0.9133136312227095,3.616348786340606,17.448640816024888
101,N,0,16.666666666666668,0.9953933468322781,0.994041626771925,0.7749208860759493,0.21889055472263869,0.914828094681195,3.8392793278579567,19.32482277806606
101,N,0,19.444444444444446,0.9807596164332992,0.9788120373003188,0.7657039711191336,0.20110192837465568,0.9377452193277014,3.7018749132737803,17.51773203821424
101,N,0,16.666666666666668,0.9956695933331513,0.9950980893911874,0.7909912984132401,0.20050125313283218,0.926130001539489,3.890300037420981,19.244649120801075
101,N,0,16.666666666666668,0.9929949542274201,0.9911653527873217,0.7829570284049526,0.21008403361344535,0.9196330700221115,3.6881963098712562,17.912413428766584
101,N,0,19.444444444444446,0.9853923650930736,0.9830094502964432,0.7810899780541332,0.20246238030095742,0.9335532735168214,3.7149751295917723,17.74885089482848
101,N,0,19.444444444444446,0.9931751780169523,0.9915750294588278,0.7795245398773006,0.20000000000000007,0.9229048297571709,3.6649797651051137,17.639489521774934
101,N,0,22.22222222222222,0.9795487837722802,0.9791504293474728,0.7628827483196415,0.2005649717514124,0.9406117256255624,3.6960088571414587,17.417625808322793
101,N,0,27.777777777777775,0.8959888308993271,0.9050053613758761,0.6760216642048252,0.2357019064124783,0.8733055803226365,2.711001798949563,11.077579815328116
101,N,0,25.0,0.8871091026064204,0.8940518314971279,0.652417962003454,0.2576489533011272,0.8294024057276946,2.543432564287635,10.67103610614294
101,N,0,22.22222222222222,0.9549427317500967,0.9506390320012943,0.7957310991422302,0.21604938271604934,0.959464422852182,3.411597332446198,15.068280709564611
101,N,0,16.666666666666668,0.9841943768667148,0.9832384218078452,0.8060475161987042,0.22360248447204972,0.948689995704904,3.6905475503469822,17.494706959146725
101,N,0,19.444444444444446,0.9851937917100866,0.9826965310604304,0.8267822736030828,0.20879120879120877,0.945968697968698,3.7965070928258497,18.417786087897607
101,N,0,19.444444444444446,0.98502959298368,0.9844763219708322,0.8335150854234824,0.19548872180451127,0.9460591260639192,3.9115322725692945,18.90577941283266
101,N,0,19.444444444444446,0.9880192066284571,0.9844869883567287,0.8428264817566453,0.20334928229665072,0.9346571564170111,3.848076852993652,18.727107448756044
101,N,0,19.444444444444446,0.9854136604065851,0.9820663516476003,0.8566559024040186,0.1974025974025974,0.9445405231933606,3.771687819115398,18.026041964618045
101,N,0,19.444444444444446,0.9959264631425829,0.9961075542699809,0.7635528871622814,0.2157360406091371,0.9309367196859047,3.9049667376808506,19.268622825889445
101,N,0,19.444444444444446,0.9849159769976902,0.9809199288086875,0.8365433782171467,0.18766066838046258,0.9382261425902563,3.6830238341341666,17.36664255250894
101,N,0,19.444444444444446,0.9905492602462868,0.9884879627473446,0.84369480748852,0.20204603580562663,0.9390654691833217,3.770127408349371,18.01739740791551
101,N,0,16.666666666666668,0.9582058179466079,0.962605822653304,0.6257216164207824,0.23888888888888882,0.860863337543057,3.343618009582352,16.44073801743352
101,N,0,19.444444444444446,0.9685189563014761,0.9666881020066311,0.8861367127496159,0.1917098445595855,0.9660755418890128,3.762954516103753,17.623692000267617
101,N,0,19.444444444444446,0.9906456911599614,0.9869157655673136,0.8045237219566017,0.21818181818181814,0.9179851439575606,3.7182003452870607,18.30748680918876
101,N,0,19.444444444444446,0.9904268350140544,0.9881010046578257,0.7884931506849315,0.21666666666666667,0.9285947385455456,3.7152327010822166,18.058129057952137
101,N,0,22.22222222222222,0.9857127912700222,0.9805075905784792,0.8669289930245037,0.19633507853403143,0.9424975928196274,3.695857781566545,17.514621658277115
101,N,0,19.444444444444446,0.9945533625298183,0.9929398146247208,0.7952340425531915,0.20572916666666663,0.928341195464711,3.7091814421005425,17.900655951189254
101,N,0,19.444444444444446,0.9931289439223543,0.9916710426905502,0.8045055364642993,0.22128851540616234,0.9326180115488344,3.789271435290857,18.550881356050784
101,N,0,19.444444444444446,0.9895615813940809,0.9868656785006449,0.8372645821905285,0.20982735723771578,0.9360990187514454,3.754310980163169,18.078389537533027
101,N,0,19.444444444444446,0.9831848227062252,0.9792574795406048,0.7942161876212308,0.20708446866485009,0.9288332691665047,3.611982672155595,17.175483256503515
101,N,0,22.22222222222222,0.9815163535360353,0.9770892931986397,0.8321751216122307,0.19783197831978316,0.9442070394317457,3.570386898897638,16.447252585136738
101,N,0,16.666666666666668,0.9920356355771546,0.9909157134567583,0.7469212921649118,0.21306818181818177,0.8945297232389793,3.6470428872022422,18.085935259484373
101,N,0,19.444444444444446,0.9798933937490883,0.9766388987547432,0.8421755725190839,0.19241192411924113,0.9475027392716049,3.7489933362093284,17.81582453300112
101,N,0,19.444444444444446,0.9891218458387258,0.986001892670821,0.8015916078856936,0.2148760330578513,0.9291305057628888,3.667311806922095,17.62500618605176
101,N,0,22.22222222222222,0.9861586065225545,0.9816391732151004,0.8217348284960422,0.19765929778933689,0.9258983683351236,3.562154956382711,16.666925743188965
101,N,0,22.22222222222222,0.9861950118880451,0.9812722535526556,0.8562833075468455,0.2005141388174806,0.9427830480434607,3.675059984174505,17.309974456351235
101,N,0,16.666666666666668,0.9909764117352936,0.988337091925633,0.8094565984474241,0.2091503267973856,0.9211297078725663,3.7333528587201834,18.24424647743088
101,N,0,19.444444444444446,0.9900582552405559,0.9884248510189934,0.7794890378691793,0.2175066312997347,0.9217838465186637,3.8845398169327345,19.381958389532695
101,N,0,19.444444444444446,0.9941786261125557,0.993537794105586,0.8043214862681745,0.2151162790697675,0.9343348683065064,3.865840169037522,19.102669127339592
101,N,0,16.666666666666668,0.9934432976726321,0.990931696980772,0.8025719978264808,0.21727019498607247,0.9161698653056914,3.6642343055358384,17.76587401948024
101,N,0,22.22222222222222,0.9881085928017111,0.9848354658649617,0.7982876712328767,0.19319727891156468,0.9337967983030698,3.5675267710758227,16.687658705641887
101,N,0,19.444444444444446,0.9902012438092821,0.987569667928652,0.8104961490238223,0.21066666666666667,0.9334431639067742,3.742257039287301,18.110465948868242
101,N,0,19.444444444444446,0.9934061301068402,0.9918597797597943,0.7756399244116131,0.2108036890645586,0.9183168946596219,3.718974795084307,18.055786747545138
101,N,0,22.22222222222222,0.9876006838738249,0.9855554016367125,0.7437227987947774,0.2019363762102352,0.917003416445781,3.556524460680267,16.78781806431775
101,N,0,19.444444444444446,0.9909237076738151,0.9866786432994069,0.8202781200492869,0.2081081081081081,0.9184519321899077,3.652753828595377,17.642655869632044
101,N,0,19.444444444444446,0.9855945659232991,0.9805635808614104,0.8186661767407679,0.22070844686648505,0.90865601454114,3.7117662335453674,18.286124869551134
101,N,0,19.444444444444446,0.9775096266161233,0.9732868931180997,0.7974568574023614,0.21052631578947367,0.9421991725925392,3.601604695896117,16.82489751247724
101,N,0,19.444444444444446,0.9851447215282977,0.979516842712464,0.865561694290976,0.21496598639455794,0.9288110975430108,3.633898669840652,17.163915773345998
101,N,0,16.666666666666668,0.9926441294784902,0.9914173404994595,0.7822073841319718,0.21128798842257607,0.9297421991680527,3.7750968626079313,18.515918038402894
101,N,0,19.444444444444446,0.9856536694654741,0.983613584412676,0.7628056398358022,0.19780219780219777,0.9280852796791994,3.6621913694168433,17.52478396631276
101,N,0,19.444444444444446,0.9801269647302249,0.9742350627685111,0.8748059006211181,0.2145804676753782,0.9177196155118554,3.753699781773752,18.140833528474275
101,N,0,19.444444444444446,0.9849651219844834,0.98424098792058,0.828894564027727,0.19072164948453618,0.9562380635230084,3.810643561965422,18.094392795766765
101,N,0,19.444444444444446,0.9844244806511393,0.985001198662978,0.8290235430335777,0.20626631853785904,0.9567424639251452,3.8805600118036305,18.761278210972826
101,N,0,19.444444444444446,0.9868304637333473,0.9827893080562181,0.8182521268368136,0.2149253731343283,0.9320526989297346,3.5682956368053804,16.704586764185297
101,N,0,19.444444444444446,0.9871534563657799,0.9840136735224749,0.8020685459338878,0.19753086419753074,0.9361935103320285,3.6480050159815116,17.280230462501553
101,N,0,16.666666666666668,0.9902613290623089,0.9878758931416894,0.78521459633201,0.21220930232558155,0.9277949582305753,3.589353050080149,16.992341477274902
101,N,0,19.444444444444446,0.9899156481212605,0.9873779871392823,0.8059080095162569,0.218236173393124,0.9294718865786908,3.6411291831531787,17.34449562738263
101,N,0,22.22222222222222,0.9804275132312599,0.9774200539199143,0.7964291965692282,0.1972602739726026,0.9345252934802569,3.6052399991972877,16.81025955450207
101,N,0,16.666666666666668,0.9944458516592175,0.9935249345611513,0.753736055567249,0.23417721518987333,0.9129617554132654,3.794043663522035,19.08961663508683
101,N,0,19.444444444444446,0.9733204374639078,0.9682875345827112,0.8244708311822405,0.19098143236074278,0.9460591200557301,3.572020450995673,16.319055683365324
101,N,0,19.444444444444446,0.9845349069992152,0.9815176794368853,0.7439386829344596,0.2084367245657568,0.9225616656292507,3.648605189047285,17.39080926575054
101,N,0,19.444444444444446,0.9903253515158104,0.9875760017554056,0.8237704918032788,0.19768934531450583,0.9409110316573074,3.7157729835485602,17.670413422491983
101,N,0,19.444444444444446,0.9833033474133048,0.9813508077593315,0.7777579116753085,0.21336760925449882,0.9400281504035849,3.8628612599511682,18.75149644852998
101,N,0,19.444444444444446,0.9908739311529955,0.9894792591779064,0.7445163610212153,0.1954022988505747,0.9243874767011536,3.633927532831323,17.1423041354887
101,N,0,22.22222222222222,0.9771484880583613,0.9804428080738364,0.8026801320644785,0.20052083333333337,0.965698813525561,3.909375683502583,18.558498053033407
101,N,0,19.444444444444446,0.979872615524039,0.9769522571009618,0.7823251263655634,0.21546261089987329,0.9405164760699071,3.5693296327756983,16.65819130131448
101,N,0,19.444444444444446,0.9833129965433846,0.9813745395913869,0.7520435967302453,0.2288828337874661,0.9442193393638793,3.701194199950092,17.659971308954262
101,N,0,19.444444444444446,0.9745979824371256,0.9716061148460772,0.8363399665240839,0.21024258760107806,0.957351198058515,3.6860247612356103,17.26875140881052
101,N,0,16.666666666666668,0.9945359405503564,0.9934478428225468,0.7582460225067909,0.22898550724637667,0.9030361814533538,3.8324541312321156,19.411793771000205
101,N,0,16.666666666666668,0.9891931328360536,0.9843146171704036,0.8298155542878874,0.21511627906976755,0.9260303796380511,3.643893014014502,17.529905288231937
101,N,0,19.444444444444446,0.9866380712442068,0.9834157537488489,0.7995988329686361,0.20505617977528096,0.9321463763150416,3.5974976916042527,17.042042643640787
101,N,0,16.666666666666668,0.9938054666073456,0.9916103481105558,0.7844155844155846,0.20899854862119005,0.9119616626578695,3.6213664349233885,17.562450534508784
101,N,0,19.444444444444446,0.9878544313224791,0.9874589842154506,0.8527645475253676,0.19290780141843966,0.9522006811091877,3.846845334526092,18.471134074182824
101,N,0,19.444444444444446,0.988703618897298,0.9848475724974413,0.822200956937799,0.22625698324022347,0.9259357650247355,3.768650333928737,18.518475325912146
101,N,0,19.444444444444446,0.9795258535373722,0.9779113651705181,0.7870668815471393,0.20858895705521469,0.9399689981473742,3.657863491626056,17.206158356409187
101,N,0,19.444444444444446,0.9867222533863184,0.9848180408973315,0.7256655574043261,0.22085889570552153,0.926664914586071,3.7725151648843807,18.568176370765137
101,N,0,19.444444444444446,0.9833168323373013,0.9807417096739919,0.7980604677695378,0.20448179271708689,0.9458661536903917,3.667057410228091,17.381148941250792
101,N,0,22.22222222222222,0.9831789254149899,0.9811109581087982,0.734231595391525,0.2087542087542087,0.9139147391283667,3.427723385448522,15.829448650127224
101,N,0,16.666666666666668,0.990973357130039,0.9907140757153561,0.8249669749009246,0.216867469879518,0.9360623099450928,3.8808814194274497,19.11918650400071
101,N,0,19.444444444444446,0.9744691971867845,0.9752771948895183,0.7273203070481509,0.19912152269399713,0.9104927829223909,3.509844282723025,16.46513482803212
101,N,0,19.444444444444446,0.9811992435938817,0.977192688728777,0.856580310880829,0.20790629575402642,0.935639677949343,3.750756470008404,17.9800247824841
101,N,0,16.666666666666668,0.9903620989967183,0.9900843067486591,0.7463242501470301,0.20454545454545459,0.9360855829774389,3.8193432716487123,18.696744504368418
101,N,0,19.444444444444446,0.9822476843011646,0.9791138601628127,0.7576950608446671,0.2125748502994012,0.9227854972701514,3.4255968752729276,15.747615442587366
101,N,0,19.444444444444446,0.9834370019394773,0.9800235268694037,0.7881996974281392,0.20543806646525686,0.93462552995151,3.5199372841028,16.270356180825942
101,N,0,22.22222222222222,0.9867501397747438,0.9845163055905247,0.7650788211103495,0.19498607242339827,0.9181602580559883,3.5941196166630287,17.051930544638
101,N,0,19.444444444444446,0.9883089938326276,0.9874707253453087,0.8020361990950226,0.19946091644204844,0.9417165961581281,3.8207471531440746,18.47411880469485
101,N,0,19.444444444444446,0.9921645969504965,0.9901845487716453,0.7889692585895117,0.2112482853223594,0.9158753543965296,3.727492807686777,18.253732348127688
101,N,0,19.444444444444446,0.9899252119406883,0.9859676554593064,0.8504568338616446,0.20491803278688525,0.9351325620797972,3.7372268547424947,17.933785289808174
101,N,0,19.444444444444446,0.9824906048907314,0.9768780692816217,0.8144897607984857,0.192,0.9114860032539074,3.601141141974811,17.14264870188084
101,N,0,19.444444444444446,0.9934600693010157,0.9917427510695626,0.7695401293932504,0.2141863699582754,0.9088670801872938,3.614619046354852,17.439753776111463
101,N,0,22.22222222222222,0.9808598609591196,0.9789192829525912,0.8362238864800947,0.20141843971631213,0.9546661084970756,3.7358417046550136,17.57464538077117
101,N,0,19.444444444444446,0.9855843105644755,0.983262896725895,0.7985249748575259,0.21374045801526714,0.9252573879269883,3.6585695750671414,17.36949263689149
101,N,0,19.444444444444446,0.9852351199866086,0.9866551582356414,0.8475110270951481,0.18508287292817682,0.9529994490491721,3.8986269489364362,18.85504517866389
101,N,0,22.22222222222222,0.9830303763235415,0.9783851350918693,0.8017772941603193,0.20461095100864546,0.9309970657801693,3.5025105971583006,16.26008016667568
101,N,0,19.444444444444446,0.9871377815422827,0.9828154662105408,0.8073676132003069,0.22121212121212142,0.9244702924561167,3.5470909172646254,16.78285131894665
101,N,0,16.666666666666668,0.9855329364813669,0.9822835885910057,0.8076156299840511,0.21450151057401812,0.9393900672970441,3.6234185928065097,17.10450370206611
101,N,0,16.666666666666668,0.9874392686284623,0.9837594367322826,0.8083564272010233,0.2369230769230769,0.9015951475680342,3.783980601342121,19.120185281801707
101,N,0,19.444444444444446,0.9847586374300904,0.9819315503253233,0.8531943815133665,0.21846153846153837,0.9311141608783329,3.8803568385228226,19.270360220340944
101,N,0,19.444444444444446,0.9752093662583263,0.9726122359541697,0.8110185778347213,0.2090909090909091,0.94893652624855,3.8125875572800583,18.451002271115183
101,N,0,16.666666666666668,0.9908984579257415,0.9887919947188749,0.8415384615384615,0.21851289833080428,0.9256614368007942,3.874341884016462,19.32615291099083
101,N,0,19.444444444444446,0.9809510065522228,0.9779176751673256,0.8083756345177665,0.20414201183431968,0.9390743881754301,3.863912172709414,19.156693599685994
101,N,0,22.22222222222222,0.9730712451068466,0.9689533193884179,0.7767377361761137,0.1777777777777778,0.9414798121099155,3.4656614978337177,15.787805910701568
101,N,0,16.666666666666668,0.9845452960606677,0.9791021784604186,0.8304052878761523,0.2233902759526939,0.9100871254102458,3.579830464637451,17.11377072812512
101,N,0,19.444444444444446,0.9779237033832608,0.9729077683241764,0.8474286690586024,0.19740259740259747,0.9456262669012985,3.563119156889694,16.355901982395793
101,N,0,16.666666666666668,0.9915994391244523,0.9892453694827721,0.7892267593397047,0.2171581769436997,0.918508397998932,3.6610305453166196,17.71507694828921
101,N,0,16.666666666666668,0.9940183654286326,0.9924839227260424,0.7930839002267573,0.22222222222222227,0.9257505775289744,3.759839242885733,18.458112309522264
101,N,0,19.444444444444446,0.9785778374965405,0.9746626056954834,0.7740484429065744,0.1983695652173913,0.9402290023373935,3.529639118600807,16.262665972680306
101,N,0,19.444444444444446,0.9822166227153856,0.9760871209130486,0.8152173913043479,0.22799422799422808,0.9057276682576018,3.67476838809239,18.073536108629526
101,N,0,16.666666666666668,0.991252135198118,0.9895212058483879,0.8049289891395155,0.22560975609756095,0.928699910226067,3.7166380774343657,17.957868916666197
101,N,0,22.22222222222222,0.974200364989977,0.9716385756515054,0.7315423976608186,0.21257485029940126,0.9236806664878795,3.4870130140260276,16.16934663140017
101,N,0,16.666666666666668,0.9885184274903165,0.9851037024176149,0.8233419637522406,0.21037463976945248,0.9229405036904333,3.6917503116896744,17.923441698271283
101,N,0,22.22222222222222,0.9827517618838916,0.9797430995744641,0.7470077061813413,0.20277777777777795,0.9090284810479617,3.4450612614377727,16.04525947819084
101,N,0,19.444444444444446,0.9867955497257963,0.9838734149021742,0.8222796970256789,0.19836956521739124,0.9332432206007211,3.709829274646618,17.66517762467137
101,N,0,16.666666666666668,0.9949136602987498,0.9934421942868857,0.7856321839080461,0.21937321937321946,0.9126345846930755,3.7939023121289157,18.945980525103703
101,N,0,19.444444444444446,0.9806142816558701,0.9777895958140388,0.7670317430852052,0.21720733427362482,0.9277832682606567,3.6963239455565677,17.83631202150778
101,N,0,19.444444444444446,0.9766068533516734,0.9718013727114638,0.7722593462163625,0.2100840336134454,0.9342000784725778,3.5704043739934366,16.80860709122089
101,N,0,19.444444444444446,0.9801499713388154,0.9744633100573569,0.8304331013147718,0.22792022792022792,0.9257096016862503,3.6375684593150748,17.424870238975313
101,N,0,19.444444444444446,0.9875589006057149,0.9876160991265246,0.7822104620394871,0.21944444444444444,0.9429503159058256,3.9659622444892135,19.84544577261179
101,N,0,16.666666666666668,0.9814777229820634,0.979661219731516,0.8825766047864012,0.2332859174964439,0.9282542112119837,4.050269624394595,20.745203774093188
101,N,0,19.444444444444446,0.9829542407810894,0.9806225349691335,0.7900529963310232,0.20370370370370378,0.9445575506228694,3.6486415489802604,17.17998494572469
101,N,0,22.22222222222222,0.9707306730780041,0.965916782456641,0.7916217188061847,0.20600858369098707,0.9414985657414531,3.4775156981780584,15.773213417573855
101,N,0,19.444444444444446,0.9810425037274928,0.9758439926928258,0.8078873239436621,0.21813031161473084,0.9167842090534121,3.6714014078212247,17.759020125463717
101,N,0,19.444444444444446,0.9785448100548786,0.9719547081209086,0.8529682043741961,0.2156028368794327,0.9432695037856188,3.5316423901981837,16.193140175791452
101,N,0,22.22222222222222,0.981488277925197,0.9781290142024884,0.8250199521149241,0.19939577039274925,0.948870559834464,3.587994333040361,16.515604988271956
101,N,0,19.444444444444446,0.9891296939567629,0.9846217589549119,0.820981892850476,0.21449275362318843,0.9258968887174607,3.569136819124662,16.85130809501343
101,N,0,22.22222222222222,0.959922187554451,0.953366587666723,0.8124110953058321,0.1878612716763005,0.9515026679415977,3.3276982131128134,14.54499458589533
101,N,0,19.444444444444446,0.9872237073878283,0.9837024681688435,0.8285253177324996,0.22814814814814816,0.9308172060239523,3.687037756541308,17.643613288410297
101,N,0,22.22222222222222,0.9897005633852992,0.9890995119755694,0.787157012195122,0.202247191011236,0.9420561096492281,3.7542914344548692,17.918829935474434
101,N,0,19.444444444444446,0.966609208468473,0.9611896745912729,0.7620757766205782,0.198813056379822,0.9293663315301508,3.460132081110483,15.753810044267798
101,N,0,19.444444444444446,0.986941426524955,0.9845818224804676,0.7304937806257066,0.22023809523809512,0.915300741827769,3.607648016786175,17.324963124727788
101,N,0,19.444444444444446,0.9662532420667185,0.961139262836198,0.8286905438696229,0.2084507042253521,0.9551418496044732,3.5742747599710145,16.405867867483018
101,N,0,19.444444444444446,0.9764036522454566,0.9718038737637286,0.8037653874004344,0.1977715877437327,0.9445082471581497,3.532016259013272,16.18209354121632
101,N,0,16.666666666666668,0.9879943966490733,0.984409570182023,0.793947082276187,0.2237762237762238,0.9186348377471093,3.553657012319902,16.881345955594597
101,N,0,22.22222222222222,0.9734182877416077,0.9679592933751275,0.8127953471464922,0.2034383954154726,0.9455413057577102,3.485491406851607,15.846070074093898
101,N,0,19.444444444444446,0.9793565693813454,0.97514024717298,0.7934532924961715,0.20579710144927543,0.9386041899377663,3.5871914478500138,16.806480714566245
101,N,0,19.444444444444446,0.9844840263408235,0.979995742595612,0.7995856093426257,0.20298507462686566,0.921355827062994,3.516857766503454,16.416227898886884
101,N,0,19.444444444444446,0.9804426834315914,0.9780190685071813,0.8129581929859322,0.21974965229485377,0.9448077554816612,3.821835848088353,18.60810585530039
101,N,0,16.666666666666668,0.9913024665371541,0.9886991565505485,0.8171534348004937,0.22122571001494767,0.9175182879964314,3.7427286225806116,18.382818600500865
101,N,0,19.444444444444446,0.9769891609396714,0.9757119904794598,0.7783949434974142,0.21022727272727265,0.9465644848039474,3.7031527445343286,17.48405915096092
101,N,0,22.22222222222222,0.9627267045015443,0.9571826024600744,0.8068099053168245,0.20113314447592068,0.9540253817172317,3.463356905281049,15.503037665256658
101,N,0,19.444444444444446,0.984252772086396,0.9796708232603453,0.8263294905169207,0.20804438280166448,0.9302839415166411,3.62349137203422,17.20829593158547
101,N,0,19.444444444444446,0.9830439899404468,0.9804722463415241,0.8137890394814377,0.19770773638968486,0.9460862119520553,3.677528849768876,17.338181311008626
101,N,0,19.444444444444446,0.9831280221328087,0.9819835417599889,0.8614653122973849,0.19971469329529246,0.9451432667932921,3.891290882093832,19.093518647375834
101,N,0,19.444444444444446,0.9794465360436051,0.9746897821377267,0.7376601195559351,0.2033898305084746,0.9164593072694,3.5123740069280003,16.47899908740274
101,N,0,19.444444444444446,0.9747719066779025,0.9688832529558737,0.8278721682847896,0.21818181818181814,0.9367443915098824,3.602709574901437,16.886075913011254
101,N,0,16.666666666666668,0.9890511703782122,0.9916560761072488,0.8270270270270268,0.21508379888268148,0.9583313824225064,4.047122346159421,20.17264993270819
101,N,0,19.444444444444446,0.9793054736196328,0.9755622429498548,0.7889587700908456,0.20891364902506954,0.9372016802958434,3.5201390611104197,16.309392269056495
101,N,0,19.444444444444446,0.9816930777846509,0.9773069507540799,0.8735144312393888,0.21515151515151504,0.9442782279898314,3.69394881904583,17.367756783567366
101,N,0,19.444444444444446,0.9792311320138135,0.973907406582842,0.8133169934640523,0.23529411764705888,0.9153371919526472,3.5729371501344938,16.94834143183628
101,N,0,22.22222222222222,0.977510848970362,0.9709081932912992,0.815059917724915,0.1911764705882354,0.9353238378675555,3.4202856598269333,15.409816174372828
101,N,0,19.444444444444446,0.9890928345638964,0.9866065408575757,0.774918379105051,0.22222222222222232,0.9251539914679683,3.5708036018346294,16.93614947147298
101,N,0,16.666666666666668,0.9877672765437697,0.9849221819992997,0.777136028679546,0.20679012345679015,0.9283987792472027,3.567932387600178,16.8782330768383
101,N,0,19.444444444444446,0.97252578007788,0.9669065458411311,0.7429142441860465,0.2123076923076923,0.9247009378897333,3.355333310157774,15.216994672875614
101,N,0,16.666666666666668,0.9857600216103313,0.9796018853838779,0.8247213779128673,0.22677165354330703,0.8998185358563849,3.5151150160022047,16.743295371862594
101,N,0,19.444444444444446,0.9810850406132997,0.9770402247390937,0.81845903638951,0.2142857142857142,0.940318109081313,3.6473933976538815,17.379276546111
101,N,0,19.444444444444446,0.9783765074066816,0.9741363973998481,0.7335221907459868,0.22187499999999993,0.9266718728810784,3.4301146538890874,15.817759693002829
101,N,0,19.444444444444446,0.9883152253536034,0.9855893760008063,0.7775956284153006,0.20869565217391317,0.9238747887343947,3.5525138724192726,16.89536278156762
101,N,0,19.444444444444446,0.9794012200480727,0.9750356022307338,0.769116555308092,0.21834061135371186,0.9358744562071735,3.5383741665925657,16.606659714567353
101,N,0,22.22222222222222,0.9655013044758051,0.9580170726456672,0.8719499478623566,0.22629969418960239,0.9460901089860365,3.442742487557657,15.431047531687076
101,N,0,19.444444444444446,0.9867279929175358,0.9853487040458784,0.7921026653504442,0.21126760563380298,0.9404365820011363,3.845367339856403,18.835732936206405
101,N,0,19.444444444444446,0.9858621814189357,0.9812315219171879,0.8343450166438223,0.20058139534883723,0.9347358599222925,3.6656387394750354,17.56845002137992
101,N,0,19.444444444444446,0.9771466595295358,0.9716608249578126,0.8107658157602663,0.20441988950276246,0.9174980606791933,3.6366049579284687,17.510040874530734
101,N,0,19.444444444444446,0.9800196124995796,0.9773077533297343,0.783696067201222,0.21802325581395354,0.9449613910338317,3.6311792686418034,17.05973103811371
101,N,0,16.666666666666668,0.9901668010901155,0.9884408442853313,0.7642898107436437,0.22478386167146963,0.9218479286743243,3.759130271010095,18.612543370934663
101,N,0,19.444444444444446,0.9849564453462967,0.9823551364214747,0.7855142803808102,0.19648093841642228,0.931527209272568,3.6011839305752686,16.950549287920158
101,N,0,22.22222222222222,0.9751419292812379,0.9695863211565574,0.8142857142857143,0.19533527696792996,0.941069710884045,3.446381985419455,15.592806433432745
101,N,0,19.444444444444446,0.9880887148186345,0.9835227585734876,0.7994599459945996,0.20461095100864557,0.9092570079736492,3.5149997081168243,16.71261162353121
101,N,0,19.444444444444446,0.984172611952926,0.9838624247564084,0.8451669984516699,0.2053571428571429,0.9557480720195253,3.861595666945068,18.73476501987054
101,N,0,19.444444444444446,0.9878465314853387,0.9845901070702037,0.8250548573708357,0.2114285714285713,0.918919320540845,3.787831667753491,18.659755646380734
101,N,0,16.666666666666668,0.9884546029908875,0.9867846582193828,0.8277595628415301,0.2256097560975609,0.9310649065834424,3.8550365587643745,19.04294042230924
