record,n_ect,n_pac,couplets,regular,rr_cv,rmssd_norm,pnn_norm,iqr_norm,mad_norm,range_norm,turning_point_ratio
800,1,1,1,False,0.146346363767104,0.068169819191023,0.11290322580645161,0.0476190476190472,0.023809523809524086,0.619047619047619,0.6557377049180327
800,0,0,0,True,0.06544396538813912,0.055558094529148574,0.24193548387096775,0.09459459459460245,0.05405405405404595,0.2972972972972968,0.6065573770491803
800,0,0,0,False,0.13532072573753218,0.08818007303647026,0.3064516129032258,0.136363636363614,0.03896103896103742,0.5714285714285714,0.6065573770491803
800,2,2,2,False,0.16997271764933594,0.12559564420544506,0.3709677419354839,0.27941176470588724,0.11764705882352339,0.6470588235294042,0.5245901639344263
800,1,1,1,True,0.08530883861710742,0.08826691400546818,0.22580645161290322,0.05952380952382654,0.035714285714267956,0.5595238095237799,0.5573770491803278
800,0,0,0,True,0.08313905147216577,0.038964759577689335,0.12903225806451613,0.14583333333333182,0.05555555555559987,0.3750000000000272,0.5737704918032787
800,0,0,0,True,0.015746658216773055,0.018114818305843758,0.0,0.01538461538460797,0.01538461538460797,0.07692307692303985,0.4918032786885246
800,0,0,0,True,0.03562277127294839,0.018955640009788076,0.0,0.062499999999969406,0.031249999999984703,0.1250000000000204,0.6229508196721312
800,1,0,0,True,0.034991844273716266,0.03353488962985309,0.06451612903225806,0.04687499999997705,0.015625000000073934,0.20312499999998215,0.5409836065573771
800,0,0,0,True,0.040129101986335805,0.036054843962427315,0.08064516129032258,0.03968253968251995,0.01587301587300798,0.23809523809536834,0.639344262295082
800,5,1,3,False,0.23585378960163653,0.35281352424715984,0.1935483870967742,0.059701492537285517,0.029850746268642758,1.4776119402985959,0.5901639344262295
800,0,0,0,False,0.17952732496302046,0.07877498829377778,0.24193548387096775,0.11538461538463599,0.051282051282030686,0.7692307692307281,0.5737704918032787
800,2,2,3,False,0.1509235276687037,0.15551032086962308,0.2903225806451613,0.1062500000000098,0.050000000000104426,0.7999999999998434,0.5081967213114754
800,3,3,3,False,0.17165204393874134,0.14521365832017732,0.3548387096774194,0.255952380952378,0.04761904761914826,0.773809523809512,0.4918032786885246
800,0,0,0,True,0.037465210428287175,0.02703210997768416,0.0967741935483871,0.06329113924034904,0.025316455696324677,0.15189873417728714,0.6229508196721312
800,2,2,2,True,0.111811228291743,0.09805255293010148,0.3387096774193548,0.11764705882353302,0.0588235294117358,0.611764705882298,0.47540983606557374
800,2,2,2,False,0.13176027911730248,0.1349118746990692,0.3387096774193548,0.14367816091959126,0.0574712643677885,0.6781609195401443,0.5245901639344263
800,2,2,2,False,0.12760327352666967,0.12847944795782806,0.3548387096774194,0.20202020202020096,0.10101010101004773,0.5757575757574831,0.5245901639344263
800,2,2,2,True,0.10552939714543291,0.10507766544379683,0.16129032258064516,0.14678899082571356,0.02752293577980333,0.5321100917432476,0.6721311475409836
800,0,0,0,True,0.07420128520946312,0.02909713782265778,0.06451612903225806,0.12385321100906709,0.03669724770640444,0.23853211009182046,0.5573770491803278
800,2,2,2,True,0.0958318032009654,0.10655497061091868,0.3387096774193548,0.12755102040805563,0.06122448979589227,0.5510204081632436,0.6229508196721312
800,2,2,2,True,0.08474657901408442,0.10688116801671373,0.16129032258064516,0.028037383177751597,0.018691588785037606,0.5233644859814434,0.639344262295082
800,0,0,0,True,0.05074663340898199,0.03519292303876121,0.14516129032258066,0.07009345794384224,0.028037383177654005,0.2336448598130677,0.5901639344262295
800,2,2,1,True,0.09125840453845387,0.08413810062808347,0.06451612903225806,0.06018518518510192,0.027777777777664974,0.4814814814813955,0.4426229508196721
800,1,1,1,True,0.10402915145521921,0.08735814443850533,0.3064516129032258,0.17346938775513465,0.10204081632648712,0.5306122448979461,0.6557377049180327
800,2,2,2,True,0.10955430479753459,0.11058616455068772,0.27419354838709675,0.09883720930245972,0.04651162790695415,0.5697674418605526,0.5901639344262295
800,2,2,1,True,0.054884322843635085,0.07880112377387649,0.3225806451612903,0.0731707317072798,0.036585365853512554,0.3414634146339724,0.5409836065573771
800,0,0,0,True,0.06433727743123073,0.03296898849600162,0.16129032258064516,0.09868421052633025,0.0526315789473395,0.26315789473697226,0.5901639344262295
800,1,0,1,True,0.10703781999074605,0.13674483485445238,0.3225806451612903,0.10810810810804708,0.05405405405402354,0.8378378378379294,0.5081967213114754
801,23,3,2,False,0.12870538888289162,0.21233963409349824,0.7741935483870968,0.1981132075471674,0.09433962264151262,0.7924528301886681,0.8524590163934426
801,43,25,0,False,0.20411818092000983,0.3253698892848061,0.7903225806451613,0.31521739130435633,0.10869565217390471,0.9565217391304551,0.819672131147541
801,30,2,7,False,0.16024345561151665,0.3002868704292786,0.9193548387096774,0.2200000000000141,0.11999999999999582,0.8000000000000157,0.9016393442622951
801,21,1,0,True,0.09958125057338982,0.18330516574902475,0.7258064516129032,0.1734693877550988,0.08163265306123862,0.3877551020408968,0.8032786885245902
801,27,0,9,False,0.15303356188805187,0.29733480673785256,0.8870967741935484,0.2352941176470528,0.1176470588235264,0.5490196078431915,1.0
801,21,0,4,False,0.13029787884366548,0.2456449189480997,0.7741935483870968,0.23584905660374292,0.11320754716976114,0.4716981132075351,0.8852459016393442
801,28,1,4,False,0.14923390445267307,0.2919073826297602,0.9193548387096774,0.2596153846153798,0.13461538461531702,0.6346153846154174,0.9672131147540983
801,26,2,3,False,0.15101377401955343,0.2800454214402397,0.9193548387096774,0.24038461538454492,0.11538461538465787,0.7692307692308851,0.9672131147540983
801,27,3,5,False,0.17439866883403168,0.3139895633449963,0.9032258064516129,0.3173076923077338,0.13461538461541744,0.8269230769230634,0.8688524590163934
801,22,0,8,False,0.14713571293999683,0.28066865863544016,0.7903225806451613,0.2830188679245367,0.11320754716985407,0.5283018867924881,0.7868852459016393
801,21,1,9,False,0.15827233473500946,0.29990557248162225,0.7903225806451613,0.2788461538461143,0.11538461538465787,0.6538461538461268,0.8524590163934426
801,0,0,0,True,0.059659659964539785,0.060467523223334096,0.27419354838709675,0.0819672131146692,0.0327868852458848,0.262295081967164,0.6065573770491803
801,0,0,0,True,0.038750803008799815,0.05959218927509477,0.3225806451612903,0.042857142857160975,0.028571428571415786,0.1714285714285693,0.7540983606557377
801,5,3,4,False,0.1341788634287969,0.21365300024163467,0.27419354838709675,0.08108108108118214,0.04054054054059107,0.7432432432432995,0.5737704918032787
801,6,2,4,False,0.15471252592419033,0.26763613576443385,0.4032258064516129,0.06849315068483058,0.027397260274103892,0.8630136986301957,0.6557377049180327
801,0,0,0,True,0.022644006392470335,0.027890438428850847,0.0967741935483871,0.027397260273960847,0.013698630136980423,0.1506849315069277,0.5901639344262295
801,3,1,3,True,0.1251742021297247,0.23426675295669047,0.3064516129032258,0.04166666666672105,0.01388888888902788,0.8888888888890822,0.6065573770491803
801,2,2,0,True,0.07347667179014043,0.08487366550392077,0.14516129032258066,0.04054054054051766,0.013513513513647,0.47297297297298824,0.5737704918032787
801,1,1,0,True,0.04685409089559362,0.060877009997408506,0.06451612903225806,0.027027027027015586,0.013513513513507793,0.4054054054053749,0.6885245901639344
801,7,7,1,True,0.09681059023704162,0.10257544648381603,0.1774193548387097,0.02739726027403237,0.013698630136980423,0.5342465753425226,0.5573770491803278
801,7,5,4,False,0.1486840978592111,0.23529359181024326,0.3387096774193548,0.03623188405802475,0.014492753623330972,0.8840579710142603,0.6721311475409836
801,5,3,3,True,0.1273195663658358,0.21863425400581862,0.12903225806451613,0.034246575342379536,0.013698630136980423,0.8082191780822741,0.639344262295082
801,0,0,0,True,0.030970834913193173,0.026134508038550205,0.08064516129032258,0.04225352112674192,0.014084507042394383,0.14084507042247307,0.5737704918032787
801,1,1,1,True,0.03969756429822384,0.06492085543966804,0.04838709677419355,0.01428571428585707,0.014285714285707893,0.399999999999821,0.4098360655737705
801,0,0,0,True,0.019915151927209364,0.024466367390270586,0.03225806451612903,0.02173913043484841,0.014492753623030485,0.14492753623181825,0.5409836065573771
801,0,0,0,True,0.02112000287679219,0.023689710569100787,0.06451612903225806,0.014705882353085708,0.014705882352778577,0.16176470588240713,0.5245901639344263
801,0,0,0,True,0.03230135170231913,0.03398682749483783,0.14516129032258066,0.029411764705864287,0.014705882353085708,0.20588235294135715,0.5737704918032787
801,0,0,0,True,0.026144742930434343,0.03754864315923028,0.08064516129032258,0.014705882353090225,0.014705882352783094,0.20588235294111323,0.4918032786885246
801,0,0,0,True,0.01578758391043905,0.013393958273643616,0.0,0.014705882353090225,0.014705882352783094,0.05882352941205377,0.5409836065573771
801,1,1,1,True,0.03992679956691674,0.06113262308632131,0.04838709677419355,0.014925373134477237,0.014925373134477237,0.3880597014926676,0.4262295081967213
801,0,0,0,True,0.016969108218136776,0.01487957643521705,0.0,0.029411764705873318,0.014705882352783094,0.07352941176483686,0.5081967213114754
801,0,0,0,True,0.017611116406373608,0.01145674003607462,0.0,0.014925373134477237,0.014925373134165521,0.07462686567176276,0.47540983606557374
801,0,0,0,True,0.013221800689510354,0.018192460284016308,0.0,0.014705882353090225,0.014705882352783094,0.058823529411746636,0.6229508196721312
801,0,0,0,True,0.01836903736121307,0.012117182652629892,0.0,0.029850746268798616,0.014925373134477237,0.05970149253759723,0.6885245901639344
801,0,0,0,True,0.015150183790648407,0.015454231164102794,0.0,0.0298507462684869,0.014925373134165521,0.05970149253759723,0.6885245901639344
801,0,0,0,True,0.015402200207046454,0.014998920978110867,0.0,0.015151515151668576,0.015151515151352138,0.06060606060635786,0.7213114754098361
801,1,1,1,True,0.0577936315659184,0.08526691240154691,0.16129032258064516,0.030303030303011125,0.015151515151347343,0.5606060606061805,0.7049180327868853
801,0,0,0,True,0.023821455105620212,0.03193719329816797,0.12903225806451613,0.02238805970140414,0.014925373134165521,0.17910447761216827,0.5737704918032787
801,6,1,6,True,0.1174943723967669,0.22751013151223884,0.3387096774193548,0.030303030303020714,0.015151515151352138,0.5606060606063579,0.5901639344262295
802,1,0,1,True,0.0736546858084956,0.1142982101007571,0.0967741935483871,0.0568181818181822,0.022727272727276773,0.7159090909090923,0.4098360655737705
802,1,0,1,True,0.07367282769396778,0.112372025449654,0.12903225806451613,0.050561797752814594,0.02247191011236367,0.6966292134831418,0.4098360655737705
802,0,0,0,True,0.02464559689085407,0.02758861206730398,0.08064516129032258,0.03333333333334687,0.01111111111113496,0.122222222222209,0.5081967213114754
802,0,0,0,True,0.04463075036757497,0.0275965479899418,0.08064516129032258,0.05617977528090019,0.022471910112377678,0.20224719101125244,0.4918032786885246
802,2,0,2,True,0.10850360116526457,0.1785193169687897,0.1774193548387097,0.06565656565653276,0.03030303030304149,0.8181818181818302,0.3770491803278688
802,8,0,8,False,0.18277957651581547,0.2731582070578092,0.46774193548387094,0.22666666666669544,0.09333333333335747,0.8000000000000278,0.5245901639344263
802,0,0,0,True,0.04015856146260476,0.028367262140129062,0.12903225806451613,0.05128205128202725,0.025641025641013625,0.1666666666666555,0.4426229508196721
802,0,0,0,True,0.0653491280815372,0.031713593481411305,0.06451612903225806,0.08045977011496874,0.03448275862061515,0.24137931034490623,0.4918032786885246
802,1,0,1,True,0.09428900713077136,0.1549413172466002,0.11290322580645161,0.05555555555552655,0.033333333333257914,0.9333333333333101,0.47540983606557374
802,0,0,0,True,0.032961100495528785,0.03192379819398512,0.11290322580645161,0.044943820224698006,0.022471910112349003,0.14606741573038587,0.5573770491803278
802,0,0,0,True,0.030300901403084213,0.032367033508223494,0.11290322580645161,0.045454545454523876,0.022727272727261938,0.125000000000178,0.3442622950819672
802,0,0,0,True,0.03775209983932049,0.03456939166482644,0.14516129032258066,0.05617977528087251,0.033707865168523504,0.15730337078656037,0.4918032786885246
802,0,0,0,True,0.067830909311789,0.0329620382825631,0.1774193548387097,0.11578947368425681,0.06315789473669747,0.2421052631578716,0.4918032786885246
802,4,0,1,True,0.10434614173991219,0.1454778856068352,0.2903225806451613,0.09693877551010949,0.03061224489805269,0.8673469387755668,0.45901639344262296
802,34,0,0,False,0.14564967652983088,0.10575330133563461,0.20967741935483872,0.16091954022992783,0.0574712643677885,1.0114942528735578,0.4262295081967213
802,1,0,1,True,0.08641963343030357,0.1326524668569978,0.1774193548387097,0.04411764705885665,0.01960784313734925,0.7941176470589079,0.36065573770491804
802,2,0,2,False,0.12798981819968158,0.1949991888428576,0.25806451612903225,0.08910891089104304,0.04950495049492052,0.8613861386138296,0.4262295081967213
802,0,0,0,True,0.05397123311085954,0.037326452266750104,0.11290322580645161,0.05445544554478478,0.02970297029711774,0.22772277227742016,0.5081967213114754
802,0,0,0,True,0.056005586260809696,0.03477835586241456,0.16129032258064516,0.05499999999991333,0.029999999999876778,0.2800000000000334,0.3442622950819672
802,0,0,0,True,0.06384708094814835,0.039685830137554716,0.22580645161290322,0.06435643564368618,0.02970297029711774,0.25742574257433115,0.3114754098360656
802,1,0,1,True,0.10542217228746294,0.13103127146739238,0.25806451612903225,0.08333333333324802,0.049019607843014804,0.7745098039213538,0.39344262295081966
802,2,0,2,True,0.10987550361713026,0.18504464615596436,0.22580645161290322,0.055555555555620015,0.027777777777664974,0.8611111111109017,0.4918032786885246
802,25,0,0,True,0.09524195228092786,0.04897549011681951,0.22580645161290322,0.17619047619053776,0.08571428571434254,0.31428571428585633,0.5245901639344263
802,1,0,1,True,0.10687447165739583,0.1480277256815687,0.45161290322580644,0.09090909090905168,0.049586776859482734,0.7851239669420689,0.5081967213114754
802,1,0,1,True,0.09656997844412155,0.1339074744688025,0.4032258064516129,0.07317073170737091,0.04065040650413268,0.7317073170730299,0.5737704918032787
802,1,0,1,True,0.09478496139350853,0.1396207043920971,0.4032258064516129,0.06611570247939662,0.03305785123982776,0.7851239669420689,0.5573770491803278
803,5,0,5,False,0.1497004223778814,0.25433885154980806,0.27419354838709675,0.05194805194805181,0.025974025974026305,0.8181818181818201,0.5409836065573771
803,6,0,6,False,0.1435010098356432,0.24620473829580927,0.2903225806451613,0.05263157894737746,0.026315789473671556,0.7631578947368358,0.5901639344262295
803,2,0,2,True,0.09099089493299181,0.15394220942531306,0.12903225806451613,0.04375000000001193,0.025000000000004487,0.7000000000000114,0.4918032786885246
803,5,0,5,False,0.13101357986039905,0.22463591981072523,0.24193548387096775,0.04430379746834899,0.025316455696189982,0.734177215189873,0.47540983606557374
803,2,0,2,True,0.12617285316468557,0.14257860624843882,0.11290322580645161,0.1733333333333359,0.07999999999999582,0.6933333333333087,0.4262295081967213
803,4,0,4,False,0.14246849492655342,0.2407980626786321,0.24193548387096775,0.06250000000003263,0.025000000000052213,0.8500000000000131,0.45901639344262296
803,7,0,7,False,0.1683404883610931,0.28832838972011343,0.3387096774193548,0.07051282051282094,0.038461538461520436,0.7820512820512503,0.4918032786885246
803,3,0,3,True,0.10830575417771446,0.18327616404444866,0.1774193548387097,0.04999999999997716,0.02499999999998858,0.762499999999978,0.47540983606557374
803,5,0,4,False,0.13454909980717145,0.22302220788282756,0.22580645161290322,0.044303797468366976,0.02531645569619082,0.7594936708861872,0.47540983606557374
803,4,0,4,True,0.12323733413901979,0.2120259410310121,0.24193548387096775,0.05063291139224946,0.02531645569612473,0.7341772151897982,0.5573770491803278
803,2,0,2,True,0.09401489192305244,0.15449568954186518,0.22580645161290322,0.0569620253164992,0.025316455696324677,0.7341772151898467,0.4426229508196721
803,7,0,6,False,0.18903484341807655,0.27712982178995776,0.3387096774193548,0.23376623376620648,0.06493506493517413,0.8961038961039384,0.5245901639344263
803,3,0,3,True,0.127194677923991,0.20996383890672846,0.1774193548387097,0.043209876543252056,0.024691358024678624,0.8024691358023132,0.45901639344262296
803,8,0,6,False,0.18675241285780456,0.3102401480320084,0.3225806451612903,0.04375000000004242,0.024999999999986946,0.8874999999999282,0.6229508196721312
803,4,0,4,False,0.13817081588461724,0.2387491004301744,0.1935483870967742,0.024691358024743086,0.012345679012339312,0.8641975308641386,0.5081967213114754
803,6,0,6,False,0.15815979285231366,0.27128525227964473,0.2903225806451613,0.06249999999984499,0.02500000000012074,0.8375000000000636,0.5081967213114754
803,4,0,4,True,0.12551608883219448,0.21006305460502153,0.1935483870967742,0.03164556962030252,0.012658227848226756,0.8227848101265438,0.6229508196721312
803,4,0,4,False,0.13079976027059623,0.22150890178278254,0.1935483870967742,0.05063291139251717,0.01265822784822843,0.7848101265823638,0.6229508196721312
803,4,0,4,False,0.13001297501269518,0.22322716384025404,0.20967741935483872,0.04430379746832515,0.012658227848357266,0.8227848101265672,0.45901639344262296
803,2,0,0,True,0.07612013366296382,0.0737830181361685,0.04838709677419355,0.05194805194801672,0.02597402597373713,0.7532467532465137,0.39344262295081966
803,5,0,4,False,0.17791153390163,0.2370538501262457,0.27419354838709675,0.23648648648634918,0.09459459459470901,0.7837837837838448,0.5081967213114754
803,5,0,5,False,0.15678187454270248,0.2610506352543121,0.3064516129032258,0.08641975308649297,0.04938271604960872,0.8765432098766228,0.4426229508196721
803,4,0,4,False,0.13270697207670493,0.22695386112692129,0.22580645161290322,0.062499999999967366,0.024999999999986946,0.7749999999998565,0.5409836065573771
803,5,0,4,False,0.16330292241542968,0.20580708021398278,0.25806451612903225,0.20138888888884457,0.09722222222202079,0.9583333333332125,0.5573770491803278
803,7,0,7,False,0.16917870904530793,0.29071852644802226,0.3548387096774194,0.06329113924034904,0.02531645569645686,0.79746835443046,0.639344262295082
803,7,0,7,False,0.163007875502905,0.2704814225490226,0.3548387096774194,0.06962025316459544,0.037974683544156555,0.8101265822784242,0.5901639344262295
803,4,0,4,False,0.12854827907622365,0.21840446881007802,0.22580645161290322,0.045454545454446826,0.02597402597373713,0.7922077922073907,0.5737704918032787
803,6,0,5,False,0.15823145972329677,0.24029404809195157,0.2903225806451613,0.07999999999996658,0.026666666666933993,0.7599999999998218,0.5737704918032787
803,3,0,2,False,0.20443099614757498,0.2109448845800553,0.1935483870967742,0.3354430379747488,0.08860759493680591,0.9113924050637229,0.4918032786885246
803,4,0,4,False,0.13081745505876632,0.21927800643851764,0.25806451612903225,0.0625000000000979,0.03749999999984989,0.8000000000001044,0.47540983606557374
803,1,0,0,True,0.04354578668019839,0.04384973204623972,0.016129032258064516,0.025641025641279666,0.012820512820639833,0.35897435897416674,0.3770491803278688
803,4,0,4,True,0.11951881590030822,0.2021824018765339,0.1935483870967742,0.0379746835442787,0.025316455695921433,0.7974683544305136,0.5245901639344263
804,1,0,0,False,0.14736124636718897,0.20332458716039253,0.8064516129032258,0.17213114754098224,0.08196721311475302,0.9344262295081985,0.6721311475409836
804,1,0,3,False,0.16614730189585997,0.217494682861694,0.7580645161290323,0.19999999999999674,0.09999999999999565,0.7833333333333282,0.6885245901639344
804,1,0,4,False,0.1309984538285822,0.20421965592340197,0.8225806451612904,0.19827586206896183,0.0862068965517284,0.5000000000000112,0.7049180327868853
804,3,0,6,False,0.19926074159130602,0.2831202512065171,0.7903225806451613,0.23728813559323758,0.11864406779659667,0.9152542372881326,0.639344262295082
804,4,0,4,False,0.14927276324904673,0.22512074489973646,0.7419354838709677,0.18032786885243832,0.08196721311475831,0.8688524590163695,0.7213114754098361
804,3,0,6,False,0.16262601569596685,0.250239196177111,0.8225806451612904,0.17796610169491714,0.10169491525423204,0.9830508474575911,0.7049180327868853
804,1,0,3,False,0.1836720085952971,0.29441990322691863,0.8709677419354839,0.2249999999999913,0.10000000000012182,0.8499999999999043,0.6885245901639344
804,1,0,5,False,0.14843064646191714,0.22809937607700362,0.7096774193548387,0.15833333333329416,0.08333333333328982,0.7499999999999565,0.6229508196721312
804,0,0,1,False,0.13719620560300053,0.16741744007533663,0.8225806451612904,0.1557377049180384,0.081967213114712,0.6885245901639232,0.5245901639344263
804,0,0,4,False,0.14727327101145504,0.2005510688465927,0.7258064516129032,0.17499999999999566,0.09999999999994778,0.8833333333333072,0.6885245901639344
804,0,0,3,False,0.13293949561034318,0.18550526046504756,0.6451612903225806,0.18032786885246743,0.08196721311471902,0.5901639344263193,0.5573770491803278
804,2,0,1,False,0.14176890678443302,0.19289719018297827,0.7903225806451613,0.17741935483871918,0.09677419354834635,0.9032258064516536,0.6885245901639344
804,0,0,1,True,0.12544878178991564,0.19865172387411267,0.8548387096774194,0.13934426229503427,0.06557377049195201,0.6557377049181506,0.7049180327868853
804,1,0,4,False,0.14079614887661643,0.22331347758590966,0.7419354838709677,0.1916666666666536,0.09999999999994778,0.7833333333330984,0.639344262295082
804,2,0,5,False,0.1515521635200073,0.23412095536369013,0.8064516129032258,0.15833333333333768,0.08333333333328982,0.7499999999997824,0.7049180327868853
804,2,0,6,False,0.17275204986280907,0.2699388018172479,0.8064516129032258,0.23728813559318285,0.1016949152541833,0.864406779660912,0.6721311475409836
804,3,0,3,False,0.17142267181061813,0.2566873760892362,0.8387096774193549,0.22321428571434732,0.10714285714298367,0.9107142857141491,0.6557377049180327
804,3,0,6,False,0.17359104781103796,0.2651943972516434,0.8709677419354839,0.17241379310356622,0.08620689655187314,0.8103448275862752,0.639344262295082
804,2,0,3,False,0.1590393238175942,0.220585210348234,0.8387096774193549,0.2241379310345821,0.10344827586203172,0.6551724137934076,0.5901639344262295
804,9,0,8,False,0.19209434760908284,0.3120409370611783,0.8870967741935484,0.19827586206898415,0.12068965517237033,0.7241379310345821,0.7213114754098361
804,14,0,11,False,0.243917491646777,0.4229426727214412,0.8870967741935484,0.3333333333333944,0.1754385964909806,1.0000000000003664,0.7377049180327869
804,6,0,8,False,0.18074237955794484,0.3044112806409066,0.8548387096774194,0.2377049180327504,0.0983606557376544,0.721311475409808,0.6557377049180327
804,8,0,3,False,0.1732954887217819,0.27677253564290033,0.8548387096774194,0.1500000000000348,0.08333333333330432,0.9166666666666957,0.7213114754098361
804,8,0,12,False,0.2045821091036796,0.3506291516569196,0.8709677419354839,0.3214285714285781,0.17857142857132868,0.8214285714284848,0.7540983606557377
804,10,0,12,False,0.1976280373678403,0.33512483526023823,0.9032258064516129,0.28070175438608547,0.14035087719308853,0.8771929824562078,0.7540983606557377
804,5,0,4,False,0.16492854150884842,0.2663283394543076,0.8064516129032258,0.210526315789358,0.105263157894679,0.8070175438599384,0.6065573770491803
804,5,0,7,False,0.1729992907873564,0.23583605717385925,0.8548387096774194,0.21052631578954117,0.08771929824574902,0.912280701754251,0.6065573770491803
804,12,0,3,False,0.2694843338817519,0.2641596524279443,0.7096774193548387,0.23148148148120573,0.11111111111102516,0.944444444444294,0.6229508196721312
804,4,0,7,False,0.1482199838807728,0.23750241530395566,0.9032258064516129,0.18750000000020978,0.08928571428586746,0.5714285714287313,0.6885245901639344
804,1,0,2,False,0.14284002140005486,0.18755508070398397,0.8709677419354839,0.23148148148148864,0.11111111111106814,0.6296296296297729,0.6229508196721312
804,0,0,1,False,0.14076428629223345,0.17244825034431482,0.7903225806451613,0.16666666666673113,0.09259259259232759,0.6481481481478402,0.6557377049180327
804,2,0,5,False,0.16516512258634997,0.22867347156398235,0.7741935483870968,0.23529411764711905,0.11764705882304764,0.9215686274510285,0.5901639344262295
804,1,0,4,False,0.15661827060576358,0.22896515662246542,0.8548387096774194,0.1923076923080167,0.09615384615360673,0.6923076923082175,0.5901639344262295
804,2,0,3,False,0.15707975710292799,0.20527176221995524,0.8225806451612904,0.21698113207544195,0.1132075471697444,0.8301886792447923,0.6065573770491803
804,3,0,5,False,0.15787854197428158,0.23713796078832322,0.8064516129032258,0.20370370370401167,0.11111111111106814,0.6666666666667956,0.6557377049180327
804,1,0,2,False,0.12836758614950783,0.15645956836869795,0.7096774193548387,0.14545454545484232,0.0727272727272313,0.6545454545458411,0.6721311475409836
804,2,0,5,False,0.12964164317519364,0.19063408888964975,0.8870967741935484,0.13207547169823217,0.07547169811316294,0.5660377358491161,0.5737704918032787
804,2,0,7,False,0.1643526695053105,0.24767067869142118,0.7419354838709677,0.20909090909107478,0.10909090909084695,0.7636363636363084,0.6885245901639344
804,1,0,2,False,0.15252345060485328,0.20061016424768452,0.8709677419354839,0.19090909090926697,0.090909090909229,0.7818181818183061,0.639344262295082
804,5,0,6,False,0.14912339759554477,0.21844779156403044,0.8387096774193549,0.1909090909090771,0.090909090909229,0.6363636363634637,0.5737704918032787
804,11,0,9,False,0.22092412579223206,0.36477251117768084,0.9032258064516129,0.27777777777794965,0.1481481481484203,0.9814814814813024,0.7377049180327869
804,11,0,8,False,0.1971020820098355,0.3222611320877206,0.9193548387096774,0.2142857142859274,0.08928571428583416,0.7857142857140726,0.8360655737704918
804,10,0,9,False,0.1796019220163955,0.28394671208510414,0.8064516129032258,0.24999999999990677,0.10714285714281718,0.8571428571432834,0.7377049180327869
804,14,0,8,False,0.2018944484567631,0.3158697943353741,0.8387096774193549,0.30000000000003796,0.10909090909088838,0.8000000000002279,0.6721311475409836
805,3,0,0,False,0.1365038490703651,0.1411732048683143,0.20967741935483872,0.01449275362319101,0.014492753623186281,0.5797101449275316,0.5245901639344263
805,1,0,0,True,0.08054654483659614,0.08012023171525438,0.0967741935483871,0.014492753623200332,0.014492753623171956,0.5362318840579583,0.5901639344262295
805,3,0,0,False,0.13858580879819402,0.12617154962621152,0.16129032258064516,0.0499999999999944,0.014285714285726007,0.5714285714285927,0.5409836065573771
805,4,0,0,False,0.16774374503555747,0.1626756926164115,0.20967741935483872,0.027777777777764686,0.013888888888882343,0.6111111111111132,0.5573770491803278
805,5,0,0,False,0.18686675342095094,0.20839694359556768,0.27419354838709675,0.027397260273995628,0.013698630137015695,0.6301369863013631,0.5245901639344263
805,4,0,1,False,0.1691689841684997,0.21441921213399764,0.24193548387096775,0.027397260273958886,0.013698630136979443,1.0410958904109384,0.47540983606557374
805,6,0,0,False,0.20368625336714777,0.22777423623695414,0.3064516129032258,0.04054054054059394,0.01351351351357835,0.6351351351351485,0.39344262295081966
805,4,0,0,False,0.1675205229005565,0.18128617710993586,0.20967741935483872,0.02666666666668848,0.013333333333326836,0.6133333333333826,0.4426229508196721
805,3,0,0,False,0.14901640254176773,0.14850741425494635,0.1774193548387097,0.03896103896102047,0.012987012987006823,0.5974025974026529,0.3770491803278688
805,7,0,0,False,0.2166574558410781,0.24391471224278982,0.3548387096774194,0.052631578947381075,0.026315789473742062,0.6052631578947621,0.36065573770491804
805,6,0,0,False,0.20290478896354674,0.22968948890742708,0.3225806451612903,0.032467532467652674,0.012987012987074631,0.6103896103897275,0.47540983606557374
805,5,0,0,False,0.18877233616125066,0.20463219483261097,0.24193548387096775,0.03246753246758266,0.012987012987005941,0.6103896103896861,0.5737704918032787
805,6,0,0,False,0.2097333156948467,0.2367191543756369,0.3548387096774194,0.05769230769221758,0.012820512820641549,0.6282051282051436,0.5245901639344263
805,7,0,0,False,0.22063189213536027,0.25756162086011614,0.3548387096774194,0.038961038961158725,0.025974025974015408,0.6103896103897689,0.4262295081967213
805,8,0,0,False,0.23337800188101712,0.27426324835864646,0.4032258064516129,0.07051282051272525,0.012820512820641549,0.6153846153847699,0.47540983606557374
805,7,0,0,False,0.21772387365948997,0.24862962738361907,0.3709677419354839,0.058441558441602474,0.025974025974015408,0.6103896103897689,0.5573770491803278
805,7,0,0,False,0.2204933291578723,0.25180417061390364,0.3709677419354839,0.05769230769228452,0.012820512820641549,0.6153846153847699,0.45901639344262296
805,7,0,0,False,0.21680217815657296,0.25094693068580937,0.3548387096774194,0.03846153846158995,0.012820512820641549,0.6153846153847699,0.4918032786885246
805,7,0,0,False,0.22278515289054698,0.2522787920992394,0.3870967741935484,0.051282051282030686,0.025641025641015343,0.6538461538462929,0.4918032786885246
805,5,0,0,False,0.18641028930764805,0.20690722973660727,0.25806451612903225,0.03846153846165689,0.012820512820641549,0.6153846153847699,0.5245901639344263
805,7,0,0,False,0.2136860598414714,0.25045152636795487,0.3548387096774194,0.03896103896108563,0.012987012987005941,0.6363636363635624,0.5737704918032787
805,6,0,0,False,0.20370129006837845,0.23058238877708095,0.3709677419354839,0.051282051282157695,0.025641025640878033,0.6153846153848214,0.5573770491803278
805,5,0,0,False,0.1867843730699362,0.21079360165728359,0.3064516129032258,0.03797468354442092,0.01265822784822843,0.6075949367091485,0.4918032786885246
805,7,0,1,False,0.228634644334162,0.2894937386927945,0.43548387096774194,0.10897435897450143,0.02564102564101191,1.0897435897436756,0.47540983606557374
805,8,0,0,False,0.22290329333005648,0.25678734242472706,0.43548387096774194,0.06410256410226202,0.02564102564101191,0.6282051282051935,0.4426229508196721
805,4,0,0,False,0.16387694578833828,0.18677849486994028,0.22580645161290322,0.053333333333435436,0.026666666666648103,0.6400000000001114,0.5409836065573771
805,7,0,0,False,0.20148938163127422,0.22813754590915936,0.3548387096774194,0.059210526315704504,0.01315789473697589,0.592105263158419,0.47540983606557374
805,8,0,0,False,0.22669308303919142,0.26118216904064245,0.3548387096774194,0.07894736842114665,0.02631578947366975,0.6184210526316513,0.39344262295081966
805,7,0,0,False,0.2214550253898002,0.25933667171564984,0.4032258064516129,0.058441558441602474,0.025974025974015408,0.623376623376641,0.39344262295081966
805,8,0,1,False,0.23593084782170928,0.290570387639616,0.45161290322580644,0.06410256410241306,0.02564102564075102,1.0384615384619298,0.5081967213114754
805,6,0,0,False,0.20576022124306714,0.2345002395655598,0.3548387096774194,0.05769230769235918,0.025641025641018774,0.6153846153849861,0.4918032786885246
805,7,0,0,False,0.21890058501629797,0.250767931199746,0.43548387096774194,0.07692307692305633,0.025641025641286532,0.6153846153847183,0.47540983606557374
805,6,0,0,False,0.20515300233986622,0.23077906095912612,0.3709677419354839,0.06410256410266366,0.02564102564101191,0.6282051282049257,0.4098360655737705
805,3,0,0,False,0.14583380333872917,0.15758972981524683,0.20967741935483872,0.025316455696192494,0.01265822784822843,0.6202531645571127,0.5081967213114754
805,6,0,0,False,0.2045888585592516,0.2330888282689825,0.3225806451612903,0.051282051281756065,0.025641025640744153,0.6282051282051935,0.47540983606557374
806,0,0,0,True,0.015304007854219568,0.020415399904658498,0.016129032258064516,0.01818181818181845,0.018181818181815485,0.0727272727272738,0.4918032786885246
806,0,0,0,True,0.012026852650645905,0.017975112192346265,0.0,0.01851851851852165,1.2086174036893505e-14,0.055555555555564955,0.6065573770491803
806,1,1,1,True,0.03919835702184904,0.06615995960304154,0.06451612903225806,0.018518518518510014,2.4172348073787594e-14,0.4074074074073895,0.6229508196721312
806,2,1,2,True,0.04494456960432005,0.07623092628234236,0.11290322580645161,0.01886792452831722,0.01886792452829259,0.3396226415094637,0.5901639344262295
806,1,1,1,True,0.04708296168285277,0.07136191092081551,0.0967741935483871,0.018518518518509566,4.834469614757402e-14,0.4629629629629809,0.36065573770491804
806,1,0,0,True,0.029619486244057018,0.047172340816158446,0.06451612903225806,0.018518518518509566,0.018518518518509566,0.27777777777774015,0.47540983606557374
806,1,1,0,True,0.03162262799426261,0.05057129895382594,0.04838709677419355,4.834469614757402e-14,4.834469614757402e-14,0.2962962962963464,0.4918032786885246
806,2,1,2,True,0.053075023137160546,0.09217056775503314,0.12903225806451613,9.668939229514804e-14,0.0,0.4259259259259134,0.4426229508196721
806,1,1,1,True,0.042558886732439856,0.06864749632441317,0.04838709677419355,0.018518518518509566,0.018518518518509566,0.4259259259259134,0.3442622950819672
806,1,0,1,True,0.041317608116837705,0.06978910624017833,0.06451612903225806,0.018181818181809552,0.018181818181809552,0.41818181818180955,0.4262295081967213
806,1,0,1,True,0.03539668747729583,0.06062931733415639,0.04838709677419355,0.018181818181809552,0.018181818181809552,0.363636363636286,0.4098360655737705
806,0,0,0,True,0.016294248626714955,0.020930980259038286,0.016129032258064516,0.018518518518509566,0.018518518518509566,0.07407407407413495,0.45901639344262296
806,2,1,1,True,0.03829480440117413,0.06362991938560655,0.11290322580645161,0.018518518518606256,0.018518518518509566,0.33333333333336557,0.4426229508196721
806,0,0,0,True,0.024516955442863073,0.022476821611281707,0.0,0.03703703703697437,0.018518518518511357,0.09259259259275016,0.47540983606557374
806,0,0,0,True,0.019347831728423324,0.019868868158057988,0.0,0.018867924528290735,0.018867924528093705,0.0943396226416507,0.6229508196721312
806,6,1,1,True,0.06446156456267803,0.0969924013956454,0.20967741935483872,0.028301886792534616,0.018867924528290735,0.4150943396225932,0.5737704918032787
806,0,0,0,True,0.017073172887282773,0.021143922607567166,0.016129032258064516,0.03773584905639188,0.01886792452829445,0.07547169811337484,0.5737704918032787
806,3,2,3,True,0.06408411952367377,0.10639675466467333,0.16129032258064516,0.018518518518608047,0.018518518518317977,0.4629629629629773,0.7704918032786885
806,1,1,1,True,0.03236675381364609,0.054825843734620676,0.0967741935483871,0.018181818182001142,0.018181818181621415,0.3090909090909816,0.7704918032786885
806,1,0,1,True,0.04137805859387363,0.0662223521413743,0.04838709677419355,0.018518518518704737,0.018518518518317977,0.40740740740744324,0.6557377049180327
806,1,0,1,True,0.04016231852964966,0.06664980830948619,0.04838709677419355,0.019230769230962324,0.01923076923056069,0.4038461538461925,0.5081967213114754
806,3,2,2,True,0.08244470386986504,0.11918923874147594,0.1774193548387097,0.07407407407422448,0.018518518518701153,0.6296296296294578,0.6721311475409836
806,0,0,0,True,0.02333458190499354,0.025787016704083537,0.04838709677419355,0.03703703703701555,0.018518518518507776,0.11111111111104666,0.7868852459016393
806,1,0,1,True,0.03221007764669337,0.049357902604791414,0.06451612903225806,0.0377358490565889,0.01886792452829445,0.2830188679246138,0.6557377049180327
806,1,0,1,True,0.03520666789321302,0.057324023948729534,0.0967741935483871,0.019230769230757644,0.01923076923055683,0.34615384615383843,0.5901639344262295
806,1,1,1,True,0.042865044094113104,0.05479981976231852,0.06451612903225806,0.018867924528392966,0.018867924528097425,0.33962264150949717,0.6229508196721312
806,2,0,0,True,0.050517763934599835,0.07039649268172735,0.0967741935483871,0.037735849056778493,0.01886792452848776,0.37735849056601173,0.6721311475409836
806,1,0,1,True,0.035558491759464385,0.058689186578854594,0.04838709677419355,0.019607843137447612,0.019607843137038103,0.35294117647037143,0.5081967213114754
806,1,1,1,True,0.042254536808720516,0.06785865639062129,0.06451612903225806,0.03703703703663595,0.018518518518317977,0.4259259259263413,0.47540983606557374
806,0,0,0,True,0.013080957661180403,0.019241178827400906,0.016129032258064516,0.018518518518697572,0.01851851851792406,0.05555555555570596,0.5737704918032787
806,1,1,1,True,0.041044732134704484,0.06343069045310595,0.06451612903225806,0.018518518518697572,0.018518518518310816,0.3888888888891682,0.4918032786885246
806,1,1,1,True,0.035263866723260505,0.05244381275227498,0.06451612903225806,0.019230769230761505,0.01923076923056069,0.32692307692354805,0.6721311475409836
806,2,0,2,True,0.0569665688290468,0.10281709409769495,0.08064516129032258,0.018518518518898113,0.018518518518317977,0.5,0.39344262295081966
806,7,7,1,True,0.07009510439241126,0.08431293716693633,0.12903225806451613,0.03703703703702271,0.018518518518704737,0.40740740740724984,0.5409836065573771
806,9,8,2,True,0.09450261243680576,0.11938403783177662,0.2903225806451613,0.02777777777825048,0.018518518518704737,0.5,0.5081967213114754
806,3,2,2,True,0.0579110083533306,0.0926626801375409,0.16129032258064516,0.018518518518704737,0.018518518518704737,0.3888888888893186,0.5573770491803278
806,4,4,3,True,0.05618853064706867,0.09380500331297567,0.1935483870967742,0.03846153846152301,0.01923076923056069,0.36538461538466943,0.5573770491803278
806,0,0,0,True,0.013579274107790465,0.020886233524989733,0.0,0.019230769230962324,4.016328603029555e-13,0.03846153846192465,0.5737704918032787
806,0,0,0,True,0.019944972196584098,0.023755827246858992,0.04838709677419355,0.01923076923056069,0.01923076923056069,0.09615384615440999,0.5245901639344263
806,1,1,1,True,0.03394656858763387,0.05647129734031654,0.06451612903225806,0.03846153846112138,0.01923076923056069,0.3269230769227448,0.4918032786885246
806,1,0,1,True,0.039694591574079285,0.06547806833292202,0.14516129032258066,0.03773584905658147,0.018867924528093705,0.37735849056581466,0.5901639344262295
806,2,0,1,True,0.043207583885377085,0.057311318491712504,0.11290322580645161,0.03846153846152301,0.019230769230962324,0.34615384615370715,0.4918032786885246
806,1,1,1,True,0.04309980902704677,0.06723992971268107,0.06451612903225806,0.03773584905659634,0.01886792452810114,0.4150943396225597,0.5737704918032787
806,0,0,0,True,0.01710471063356094,0.02371435275266606,0.04838709677419355,0.009433962264440909,3.9405488180659866e-13,0.0943396226416507,0.47540983606557374
806,1,0,1,True,0.04871487851114895,0.0761098909611471,0.0967741935483871,0.028301886792545767,0.01886792452810114,0.4528301886791561,0.5245901639344263
806,0,0,0,True,0.017917881633415306,0.019314442971611084,0.0,0.018867924528495197,0.01886792452810114,0.056603773585485594,0.5573770491803278
806,1,0,1,True,0.0364783987541888,0.06387943176620849,0.06451612903225806,0.018518518518704737,0.018518518518317977,0.3703703703706139,0.5901639344262295
807,3,3,3,True,0.07139001043018517,0.11762607251767009,0.16129032258064516,0.0285714285714336,0.014285714285715635,0.4857142857142826,0.5737704918032787
807,1,1,0,True,0.027426585809240185,0.04287000670336571,0.04838709677419355,0.028985507246372562,0.014492753623181552,0.2463768115942188,0.639344262295082
807,0,0,0,True,0.034345049196933895,0.016074592668629758,0.0,0.03947368421052451,0.013157894736835778,0.14473684210526225,0.4918032786885246
807,0,0,0,True,0.014587498767769665,0.012978115167909195,0.0,0.012658227848128456,0.01265822784809541,0.05063291139244773,0.6065573770491803
807,1,1,1,True,0.042699087383347885,0.07206486865944609,0.04838709677419355,0.019480519480527186,0.012987012987006823,0.4415584415584354,0.5737704918032787
807,6,6,0,False,0.12916504759194736,0.07260580774675944,0.08064516129032258,0.026315789473671556,0.013157894736835778,0.5394736842105416,0.4098360655737705
807,0,0,0,True,0.02098064457534742,0.01656418426870479,0.0,0.013333333333327764,0.013333333333258148,0.10666666666669172,0.4426229508196721
807,0,0,0,True,0.026096753190442412,0.02241645533939698,0.016129032258064516,0.02816901408456815,0.014084507042247306,0.12676056338029928,0.6721311475409836
807,0,0,0,True,0.03302391148165146,0.01793700772876483,0.016129032258064516,0.04861111111112269,0.02777777777769116,0.11111111111112723,0.7049180327868853
807,0,0,0,True,0.012733126109699908,0.014044456509974167,0.0,0.027397260273887364,0.013698630136979443,0.05479452054798929,0.5081967213114754
807,0,0,0,True,0.023538257843449647,0.01834374125522901,0.0,0.04109589041086387,0.027397260273813877,0.09589041095884925,0.7049180327868853
807,0,0,0,True,0.03828708276435234,0.040346360118979824,0.1774193548387097,0.04794520547935996,0.027397260273960847,0.16438356164390813,0.6065573770491803
807,1,1,1,True,0.06016583295984994,0.09485203333493245,0.04838709677419355,0.02666666666679476,0.013333333333466996,0.6000000000000278,0.5901639344262295
807,4,4,1,True,0.11541171980229091,0.08856893214787172,0.11290322580645161,0.03896103896108563,0.012987012987141559,0.5584415584415268,0.6065573770491803
807,1,1,0,True,0.036896043461376156,0.04928481868862976,0.16129032258064516,0.041666666666645945,0.02380952380951197,0.22619047619036373,0.6885245901639344
807,2,2,1,True,0.044033592214251814,0.07230459115303915,0.11290322580645161,0.02352941176469432,0.01176470588234716,0.38823529411770197,0.5573770491803278
807,1,1,0,True,0.033479594737535145,0.048583413384643136,0.14516129032258066,0.03409090909089291,0.011363636363749634,0.2500000000001187,0.5901639344262295
807,0,0,0,True,0.028228435656324904,0.027152170697323348,0.04838709677419355,0.033707865168523504,0.011235955056174501,0.14606741573038587,0.4098360655737705
807,1,1,0,True,0.029269005872113923,0.04483781390780235,0.08064516129032258,0.02197802197801189,0.010989010989005945,0.25274725274725146,0.4918032786885246
807,0,0,0,True,0.025511684051838495,0.02595886845278116,0.03225806451612903,0.0329670329671288,0.010989010989119436,0.1318681318680562,0.5737704918032787
807,0,0,0,True,0.0331304679130845,0.024383364166462723,0.03225806451612903,0.043478260869545475,0.021739130434772738,0.13043478260886343,0.47540983606557374
807,0,0,0,True,0.031704572074768386,0.023002046614259208,0.016129032258064516,0.03932584269666481,0.022471910112346366,0.13483146067454752,0.5245901639344263
807,1,1,1,True,0.04386013762268845,0.06894936144259887,0.08064516129032258,0.021739130434999747,0.010869565217499873,0.42391304347818193,0.5245901639344263
807,1,1,1,True,0.057529057790347074,0.09293504867779387,0.1774193548387097,0.04255319148934279,0.021276595744671396,0.5531914893619007,0.639344262295082
807,0,0,0,True,0.03819098876355365,0.02570743193731439,0.03225806451612903,0.03296703296713637,0.02197802197778491,0.18681318681323725,0.4918032786885246
807,1,1,0,True,0.03356701479504727,0.04650031526562785,0.0967741935483871,0.031914893617229274,0.021276595744671396,0.2659574468082814,0.5573770491803278
807,0,0,0,True,0.022327328934642728,0.02586587538103236,0.04838709677419355,0.031578947368293774,0.01052631578957782,0.09473684210532102,0.5737704918032787
807,1,1,1,True,0.06454721141152989,0.09760273714534952,0.16129032258064516,0.04255319148934279,0.021276595744671396,0.5851063829785745,0.5737704918032787
807,0,0,0,True,0.035936208267380136,0.03302965060055014,0.12903225806451613,0.05263157894746098,0.03157894736830072,0.147368421052583,0.5081967213114754
807,3,3,0,True,0.07800844008102104,0.09579963672947141,0.3548387096774194,0.05729166666658735,0.03124999999987763,0.6979166666669069,0.5245901639344263
808,0,0,0,True,0.03249366031240849,0.021570682226094786,0.016129032258064516,0.04597701149425365,0.022988505747123075,0.16091954022988683,0.5409836065573771
808,0,0,0,True,0.03168899567512328,0.0198672549644324,0.016129032258064516,0.03488372093023132,0.02325581395347743,0.15116279069767918,0.5409836065573771
808,0,0,0,True,0.03549783991220625,0.016263991705080815,0.0,0.058139534883724815,0.03488372093018632,0.1162790697674648,0.4262295081967213
808,0,0,0,True,0.029725460567011554,0.018712543551221927,0.0,0.03977272727272323,0.022727272727261938,0.13636363636363097,0.45901639344262296
808,0,0,0,True,0.018874485739671914,0.02073789094439147,0.0,0.02777777777775038,0.011111111111105954,0.10000000000001161,0.5409836065573771
808,0,0,0,True,0.015029208071907415,0.013844130371226617,0.0,0.016666666666686973,0.011111111111105309,0.06666666666668987,0.4918032786885246
808,0,0,0,True,0.018052505677551425,0.018607173976890504,0.0,0.021739130434772738,0.010869565217386369,0.08695652173914771,0.5901639344262295
808,0,0,0,True,0.016737427681053046,0.01374227938062715,0.0,0.02173913043482949,0.010869565217386369,0.06521739130437497,0.4918032786885246
808,0,0,0,True,0.0260336664264715,0.01728170477017989,0.0,0.03804347826090904,0.021739130434772738,0.09782608695647732,0.5573770491803278
808,0,0,0,True,0.028791594935921067,0.01525217201943684,0.0,0.0319148936170071,0.021276595744560308,0.11702127659591487,0.47540983606557374
808,0,0,0,True,0.032886522854809704,0.021852613182661056,0.016129032258064516,0.05376344086019091,0.021505376344188646,0.13978494623649634,0.5901639344262295
808,0,0,0,True,0.017189056056756222,0.015317731458603774,0.0,0.010416666666769776,0.010416666666661,0.10416666666661001,0.4918032786885246
808,0,0,0,True,0.07191521793214449,0.024099421689783716,0.06451612903225806,0.10843373493976738,0.06024096385539137,0.2891566265061302,0.4098360655737705
808,3,0,2,True,0.1080325839819263,0.1629600246633327,0.11290322580645161,0.09523809523804788,0.04761904761902394,0.8571428571426796,0.39344262295081966
808,3,1,3,True,0.11205787165470911,0.18083225285231747,0.16129032258064516,0.06896551724140622,0.0344827586206731,0.7241379310343752,0.5573770491803278
808,4,4,0,True,0.08743662491675669,0.037766411082220945,0.04838709677419355,0.02197802197812412,0.010989010989119436,0.5164835164834497,0.5901639344262295
808,16,15,2,False,0.19679395496599386,0.1585829159582634,0.1935483870967742,0.0555555555556458,0.033333333333201834,0.8111111111110827,0.5409836065573771
808,0,0,0,True,0.015570994283214538,0.01569606451959519,0.016129032258064516,0.021739130434772738,0.010869565217499873,0.07608695652159109,0.5245901639344263
808,0,0,0,True,0.043342414644581585,0.016664179432885846,0.0,0.043478260869545475,0.021739130434772738,0.15217391304363617,0.45901639344262296
808,0,0,0,True,0.01594005209861487,0.02065649626593216,0.016129032258064516,0.010752688172373827,0.01075268817192469,0.0860215053762958,0.639344262295082
808,0,0,0,True,0.015247036936950786,0.01871490725599999,0.0,0.021052631578940426,0.010526315789360292,0.07368421052640141,0.5901639344262295
808,0,0,0,True,0.016698687305386147,0.017921332042405397,0.0,0.021276595744671396,0.010638297872446788,0.07446808510646098,0.5573770491803278
808,0,0,0,True,0.019523349275667158,0.01754468858445915,0.0,0.020833333333433044,0.010416666666770909,0.08333333333351463,0.6557377049180327
808,1,0,1,True,0.0952067500385788,0.13323611012850797,0.06451612903225806,0.08421052631587163,0.03157894736852056,0.8210526315788964,0.4098360655737705
808,0,0,0,True,0.028019419046392654,0.01946795556538554,0.016129032258064516,0.0309278350516374,0.02061855670101983,0.14432989690735412,0.5901639344262295
808,1,0,1,True,0.06696063996062793,0.09464884336362805,0.06451612903225806,0.0638297872340142,0.03191489361711818,0.5851063829785745,0.4262295081967213
808,0,0,0,True,0.02401357970486733,0.01578108086987982,0.0,0.03124999999987763,0.010416666666770909,0.09375000000006799,0.5245901639344263
809,0,0,0,True,0.042283126011744734,0.02399035842453431,0.016129032258064516,0.046153846153845476,0.015384615384618088,0.1846153846153819,0.45901639344262296
809,0,0,0,True,0.03345297881642767,0.019593437734389003,0.016129032258064516,0.04347826086957303,0.028985507246363104,0.1449275362318912,0.45901639344262296
809,0,0,0,True,0.01891236936880853,0.015682909959393376,0.0,0.014925373134350602,0.014925373134321379,0.08955223880596724,0.5081967213114754
809,0,0,0,True,0.04922355045514936,0.027151100802866854,0.11290322580645161,0.0735294117647104,0.0441176470588032,0.16176470588239358,0.5245901639344263
809,0,0,0,True,0.02935876440577988,0.020542163258757243,0.0,0.029850746268642758,0.014925373134321379,0.14925373134329173,0.4262295081967213
809,0,0,0,True,0.037717113425621306,0.023175348415790064,0.04838709677419355,0.052238805970161756,0.02985074626860263,0.1791044776119275,0.47540983606557374
809,0,0,0,True,0.019763156129333853,0.01919998729405054,0.0,0.03076923076921594,0.01538461538460797,0.09230769230772815,0.4918032786885246
809,0,0,0,True,0.0431946046620454,0.021732171836877298,0.0,0.059701492537285517,0.029850746268642758,0.16417910447769105,0.47540983606557374
809,0,0,0,True,0.017532551493557355,0.019055310676128163,0.0,0.03076923076921594,0.01538461538460797,0.07692307692312017,0.4918032786885246
809,0,0,0,True,0.04827511911287924,0.02206016988752523,0.0,0.07692307692308001,0.030769230769296267,0.16923076923084832,0.39344262295081966
809,0,0,0,True,0.0398825799321557,0.025274741360704765,0.016129032258064516,0.05797101449280297,0.028985507246363652,0.15942028985515141,0.3442622950819672
809,0,0,0,True,0.04107910358537234,0.02107746821541712,0.0,0.05882352941173761,0.029411764705868804,0.17647058823536638,0.3770491803278688
809,0,0,0,True,0.021413015237627474,0.014032258016997907,0.0,0.04477611940296414,0.014925373134321379,0.08955223880608414,0.2786885245901639
809,0,0,0,True,0.0144597856367633,0.017550346577883257,0.0,0.02307692307699228,0.01538461538460797,0.06153846153843188,0.4098360655737705
809,0,0,0,True,0.041470534301289635,0.0151803342187073,0.0,0.031746031746181715,0.01587301587300798,0.15873015873024554,0.3442622950819672
809,0,0,0,True,0.02113751782184562,0.019559823404746993,0.016129032258064516,0.0327868852458848,0.0163934426229424,0.0819672131148832,0.4426229508196721
809,0,0,0,True,0.02060104660732108,0.014737845239991092,0.0,0.0163934426229424,0.0163934426229424,0.0819672131148832,0.3442622950819672
809,1,1,0,True,0.041758745187814326,0.021878726011191986,0.0,0.04999999999979985,0.016666666666657965,0.18333333333341165,0.45901639344262296
809,5,5,1,True,0.08250197270950979,0.08256286227901914,0.08064516129032258,0.03076923076921594,0.01538461538460797,0.5538461538460475,0.4098360655737705
809,0,0,0,True,0.018781295838859676,0.018718674865904113,0.0,0.031249999999984703,0.015624999999992352,0.07812499999996175,0.4918032786885246
809,0,0,0,True,0.022948318186737943,0.014331077941599109,0.0,0.0327868852458848,0.0163934426229424,0.0983606557378256,0.39344262295081966
809,0,0,0,True,0.059978889243731195,0.02343539662409257,0.06451612903225806,0.08928571428566434,0.05357142857121213,0.2142857142857809,0.6229508196721312
809,37,37,3,False,0.17080070688165497,0.13881901245276723,0.3064516129032258,0.29166666666675733,0.16666666666659416,0.458333333333569,0.5737704918032787
809,64,64,0,True,0.07469299676076568,0.05173065517900664,0.3548387096774194,0.08333333333357505,0.02777777777805173,0.3888888888892434,0.5901639344262295
809,5,5,2,True,0.09260037545793327,0.10352543993101979,0.11290322580645161,0.05555555555561081,0.03174603174601596,0.5714285714286188,0.3442622950819672
809,0,0,0,True,0.03328821748756695,0.02071332695868122,0.0,0.04918032786899839,0.01639344262311359,0.1475409836066528,0.5737704918032787
809,0,0,0,True,0.030555377073882086,0.024975844858230213,0.016129032258064516,0.03676470588241843,0.014705882353397356,0.13235294117689064,0.4426229508196721
809,0,0,0,True,0.052542100111910114,0.02314084657989524,0.03225806451612903,0.09230769230780847,0.04615384615398456,0.20000000000006427,0.39344262295081966
809,0,0,0,True,0.04261298196987614,0.019127249020483125,0.0,0.045454545454847506,0.030303030303020714,0.16666666666677216,0.36065573770491804
809,0,0,0,True,0.04035968773440885,0.02269156360460066,0.016129032258064516,0.05303030303036536,0.030303030303020714,0.15151515151542,0.3770491803278688
809,0,0,0,True,0.029861073698809953,0.020069852959004143,0.0,0.05223880597020276,0.029850746268642758,0.11940298507457103,0.36065573770491804
809,0,0,0,True,0.023664731010363625,0.021097638890065433,0.0,0.029850746268642758,0.014925373134477237,0.11940298507457103,0.3770491803278688
809,0,0,0,True,0.027926527082517628,0.021628036405338894,0.016129032258064516,0.02898550724666633,0.014492753623333165,0.11594202898575728,0.3770491803278688
809,0,0,0,True,0.06334895956946186,0.024739930640588652,0.03225806451612903,0.07246376811590913,0.028985507246363652,0.2608695652172729,0.3770491803278688
809,0,0,0,True,0.07896886718397918,0.02968977184128095,0.14516129032258066,0.1428571428569031,0.0714285714285448,0.26785714285685647,0.5901639344262295
809,0,0,0,True,0.08355451885955134,0.024256862082689297,0.06451612903225806,0.13793103448270896,0.06896551724135448,0.3103448275864552,0.4262295081967213
809,0,0,0,True,0.03364699456427987,0.02207292665729569,0.0,0.04615384615398456,0.015384615384768622,0.1384615384616324,0.36065573770491804
809,0,0,0,True,0.045413643044450204,0.02344298370870303,0.03225806451612903,0.0681818181817175,0.030303030303020714,0.212121212121145,0.5245901639344263
809,0,0,0,True,0.0620195724192292,0.02540873580044723,0.016129032258064516,0.08064516129043668,0.04838709677399252,0.24193548387097316,0.4426229508196721
810,5,0,5,False,0.1538840962737119,0.2655629562814948,0.25806451612903225,0.037037037037040435,0.02469135802468758,0.9382716049382649,0.4918032786885246
810,1,0,1,True,0.08778671433994917,0.14343216698725292,0.04838709677419355,0.05747126436781562,0.02298850574714575,0.8850574712643913,0.2459016393442623
810,2,0,2,True,0.1103941931594719,0.1801384070022625,0.14516129032258066,0.06321839080459736,0.0344827586206731,0.8735632183908203,0.3442622950819672
810,1,0,1,True,0.08380434169818757,0.13689486836955744,0.04838709677419355,0.03488372093021561,0.011627906976768894,0.8604651162790464,0.4426229508196721
810,1,0,1,True,0.08484410192988659,0.14238909208632003,0.04838709677419355,0.03614457831326628,0.01204819277114118,0.9036144578312795,0.4098360655737705
810,5,0,5,False,0.1794738301144919,0.3024012885943948,0.27419354838709675,0.09259259259257707,0.04938271604942171,0.9629629629629176,0.4426229508196721
810,5,0,4,False,0.150194846798876,0.2528226649976941,0.22580645161290322,0.035294117647072194,0.011764705882408586,0.8941176470588141,0.39344262295081966
810,2,0,2,True,0.12220563996715157,0.2073515266771957,0.0967741935483871,0.03488372093021561,0.023255813953477075,0.9418604651163073,0.3114754098360656
810,0,0,0,True,0.034383173169044344,0.02450926162083857,0.03225806451612903,0.04651162790695415,0.023255813953477075,0.1860465116278166,0.4426229508196721
810,2,0,2,True,0.1155469110292095,0.19306148653063593,0.0967741935483871,0.05617977528087251,0.022471910112349003,0.910112359550604,0.3442622950819672
810,1,0,1,True,0.08756535577645363,0.144826352501981,0.06451612903225806,0.04444444444442382,0.02222222222221191,0.8888888888888244,0.36065573770491804
810,0,0,0,True,0.045642514672809026,0.021346947477110488,0.016129032258064516,0.0609756097560665,0.024390243902553947,0.19512195121954015,0.5081967213114754
810,3,0,3,False,0.14446582670855485,0.25185004462217325,0.14516129032258066,0.048780487804980545,0.0243902439024266,0.9512195121951468,0.47540983606557374
810,1,0,1,True,0.0817114653170528,0.12994444371407868,0.08064516129032258,0.04651162790695415,0.023255813953477075,0.8139534883720619,0.36065573770491804
810,1,0,1,True,0.07789706158574838,0.11798799370728878,0.04838709677419355,0.05681818181815485,0.03409090909089291,0.7386363636364877,0.32786885245901637
810,4,0,4,False,0.16343930977295393,0.29237709855228344,0.1935483870967742,0.05113636363633937,0.022727272727261938,0.9318181818182142,0.5081967213114754
810,2,0,2,True,0.11727205277212298,0.18521941707207557,0.08064516129032258,0.059523809523779926,0.02380952380951197,0.9166666666665838,0.36065573770491804
810,3,0,3,False,0.14089245655343124,0.23524392582510478,0.1774193548387097,0.07303370786531883,0.03370786516864479,0.9213483146066519,0.36065573770491804
810,0,0,0,True,0.021073379002070194,0.016520936950817824,0.0,0.028089887640374293,0.011235955056290515,0.12359550561778769,0.4262295081967213
810,1,0,1,True,0.0835685254949686,0.1347185490988393,0.04838709677419355,0.034090909091011576,0.022727272727261938,0.8409090909091664,0.39344262295081966
810,1,0,1,True,0.12042474472595556,0.12850650719279652,0.06451612903225806,0.1705882352940743,0.09411764705876571,0.7999999999997542,0.29508196721311475
810,1,0,1,True,0.09047261008559032,0.14106362067315012,0.11290322580645161,0.06043956043958314,0.0329670329668993,0.8681318681319438,0.36065573770491804
810,1,0,1,True,0.10884791855956287,0.14513208255205862,0.0967741935483871,0.11538461538440353,0.054945054945150784,0.8901098901099279,0.39344262295081966
810,0,0,0,False,0.13203232696068495,0.02939780608274719,0.03225806451612903,0.19047619047614311,0.09523809523782292,0.5000000000001243,0.21311475409836064
810,2,0,2,True,0.10993093907602804,0.18194895291320376,0.2903225806451613,0.06849315068504516,0.04109589041079822,0.8493150684930723,0.47540983606557374
810,8,0,8,False,0.19292036917200028,0.333065142568354,0.43548387096774194,0.16265060240947332,0.08433734939766312,0.9156626506023369,0.5409836065573771
810,8,8,0,False,0.20283794019388968,0.09287989623020934,0.11290322580645161,0.06547619047597145,0.03571428571414364,0.6904761904763443,0.39344262295081966
810,2,0,2,True,0.11987477550927478,0.19984422338608873,0.0967741935483871,0.0487804878048532,0.0243902439024266,0.9146341463416342,0.2786885245901639
810,1,0,1,True,0.08996683398834876,0.1438396518175352,0.06451612903225806,0.07831325301193602,0.03614457831335609,0.8795180722889808,0.45901639344262296
811,2,1,2,True,0.0876998546037646,0.14165347478128973,0.1935483870967742,0.04310344827586034,0.025862068965510646,0.7241379310344893,0.6229508196721312
811,0,0,0,True,0.029683079018667468,0.039310447110884154,0.24193548387096775,0.039130434782612744,0.017391304347829147,0.12173913043480403,0.6229508196721312
811,1,0,1,True,0.06002540093447217,0.09981705139705623,0.3225806451612903,0.04347826086957854,0.026086956521726695,0.486956521739148,0.6229508196721312
811,0,0,0,True,0.03163600128107371,0.04190755185045837,0.22580645161290322,0.047008547008503716,0.025641025640969574,0.18803418803419336,0.6229508196721312
811,3,0,0,True,0.0892725558386822,0.07008876409065773,0.25806451612903225,0.0434782608695662,0.017391304347862804,0.5826086956522007,0.6557377049180327
811,16,0,1,False,0.2514600294540561,0.1582006435515267,0.3709677419354839,0.2389380530973623,0.044247787610643186,0.7610619469026377,0.5737704918032787
811,0,0,0,True,0.03951739852654816,0.059654963714939495,0.3225806451612903,0.04310344827584267,0.02586206896541558,0.1982758620689663,0.639344262295082
811,0,0,0,True,0.039489256078737836,0.05843902067908093,0.22580645161290322,0.03947368421045882,0.017543859649113164,0.22807017543856276,0.5901639344262295
811,0,0,0,True,0.042335423412702806,0.05551548651197421,0.3064516129032258,0.04385964912278291,0.026315789473578148,0.21929824561391456,0.6065573770491803
811,0,0,0,True,0.06489983162930976,0.05719020807444691,0.3225806451612903,0.05217391304354538,0.026086956521727288,0.3391304347825455,0.6229508196721312
811,1,0,1,True,0.0667070989950989,0.08956365941560276,0.3064516129032258,0.06578947368422619,0.03508771929822954,0.4473684210526099,0.5737704918032787
811,0,0,0,True,0.051638975014385045,0.07186723680614865,0.3870967741935484,0.05652173913040912,0.026086956521727288,0.2173913043478182,0.6721311475409836
811,0,0,0,True,0.04478222454660768,0.07223728258459168,0.3225806451612903,0.047826086956495685,0.026086956521634112,0.19130434782607353,0.6721311475409836
811,1,0,1,True,0.06260392788055451,0.09495357703089317,0.27419354838709675,0.03947368421055042,0.017543859649296365,0.48245614035088685,0.5245901639344263
811,0,0,0,True,0.034747215087686065,0.04726458320135091,0.24193548387096775,0.04424778761069144,0.026548672566267004,0.18584070796442348,0.6065573770491803
811,2,0,2,True,0.07649561584749642,0.1290930747163169,0.27419354838709675,0.05701754385976563,0.035087719298049554,0.5614035087720906,0.6065573770491803
811,1,0,1,True,0.06587935507044618,0.10306295322908633,0.3064516129032258,0.04424778761069144,0.026548672566267004,0.5132743362833183,0.5409836065573771
811,0,0,0,True,0.0420686390934585,0.055875259397637086,0.20967741935483872,0.03508771929841596,0.01754385964929958,0.24561403508781252,0.6065573770491803
811,1,0,0,True,0.04475053587551402,0.05805126173637082,0.2903225806451613,0.044247787610599026,0.01769911504423961,0.28318584070783376,0.5737704918032787
811,0,0,0,False,0.1640765383287765,0.04302359010822809,0.3387096774193548,0.2685185185184594,0.0833333333331883,0.4907407407409395,0.4918032786885246
811,0,0,1,False,0.22778132720722147,0.1211475715872383,0.3709677419354839,0.4333333333333665,0.21904761904760958,0.7714285714282872,0.45901639344262296
811,0,0,0,False,0.19322532858223918,0.13440952255291533,0.43548387096774194,0.3673469387753536,0.16326530612237938,0.6836734693879964,0.4426229508196721
812,3,0,3,False,0.14336224735055117,0.2495461208223083,0.14516129032258066,0.029411764705882824,0.009803921568635606,0.9803921568627488,0.7377049180327869
812,5,0,5,False,0.16663116270725367,0.28889947058719984,0.25806451612903225,0.03960396039602713,0.019801980198010334,0.9207920792078941,0.7540983606557377
812,10,0,8,False,0.26875219170904113,0.4319601301703062,0.532258064516129,0.06930693069307584,0.02970297029704173,1.0099009900990052,0.8032786885245902
812,5,0,3,False,0.18852539913640584,0.2863937929028406,0.2903225806451613,0.07070707070708988,0.040404040404047596,1.0505050505050266,0.4918032786885246
812,2,0,2,True,0.12289709131687356,0.21189561550251423,0.11290322580645161,0.0399999999999812,0.0199999999999906,1.0,0.639344262295082
812,3,0,3,False,0.15189786804317107,0.26116259143726206,0.22580645161290322,0.05050505050502653,0.03030303030301592,1.0000000000000528,0.8852459016393442
812,7,0,5,False,0.23249752640945986,0.36397617930705034,0.3709677419354839,0.05392156862745173,0.019607843137297055,1.049019607843166,0.5573770491803278
812,8,0,7,False,0.2370066929956462,0.39530297308640566,0.4032258064516129,0.07000000000001932,0.04000000000003342,1.0800000000000147,0.5245901639344263
812,0,0,0,True,0.07762314458620959,0.023043011021337198,0.03225806451612903,0.059523809523779926,0.02380952380951197,0.27380952380951196,0.5901639344262295
812,0,0,0,True,0.014965160131107904,0.016364675106705806,0.0,0.012345679012469824,0.012345679012340904,0.07407407407404543,0.5901639344262295
812,0,0,0,True,0.025581244786924515,0.014725196745793272,0.0,0.024691358024678624,0.012345679012339312,0.12345679012339313,0.47540983606557374
812,0,0,0,True,0.016890095722572183,0.014539872142189528,0.0,0.019480519480576722,0.012987012987005941,0.07792207792217126,0.6065573770491803
812,0,0,0,True,0.023534517900293015,0.013448572063228923,0.0,0.03797468354415154,0.012658227848094573,0.0886075949367942,0.6721311475409836
812,0,0,0,True,0.026994891076857347,0.01744479493759005,0.0,0.04117647058827648,0.02352941176469432,0.10588235294124729,0.4918032786885246
812,1,0,1,True,0.07699329585035378,0.11471631053988503,0.04838709677419355,0.05063291139251048,0.02531645569632133,0.7088607594935604,0.5573770491803278
812,13,4,9,False,0.21619468633074793,0.33839990348936433,0.5,0.07638888888892817,0.04166666666664854,0.8472222222222887,0.6065573770491803
812,15,9,7,False,0.2437707376942664,0.35585130352995764,0.3387096774193548,0.07333333333323308,0.039999999999844056,1.0133333333331884,0.5081967213114754
812,0,0,0,True,0.023353001292134766,0.020765243364525274,0.0,0.018750000000055476,0.012500000000124004,0.10000000000020885,0.6065573770491803
812,1,0,1,True,0.0904047764679813,0.13607365357565895,0.03225806451612903,0.04216867469884217,0.02409638554215958,0.9397590361447269,0.6557377049180327
812,0,0,0,True,0.014529420593850241,0.02128125596958641,0.016129032258064516,0.01764705882358,0.011764705882222863,0.05882352941185143,0.6885245901639344
812,6,0,6,False,0.2001782464268487,0.3408635082911304,0.3225806451612903,0.03571428571439227,0.02380952380951197,0.9642857142858564,0.5081967213114754
812,0,0,0,True,0.02090746269801417,0.02602542405988218,0.03225806451612903,0.023255813953477075,0.011627906976859963,0.0930232558139083,0.7213114754098361
812,0,0,0,True,0.02595343622604359,0.026499142921990224,0.04838709677419355,0.03409090909089291,0.011363636363749634,0.11363636363654703,0.7377049180327869
812,0,0,0,True,0.017297045122731423,0.029550534852406704,0.03225806451612903,0.022471910112346366,0.011235955056290515,0.07865168539332962,0.8360655737704918
812,0,0,0,True,0.017419328830768837,0.023975690971708062,0.0,0.022471910112346366,0.011235955056290515,0.0674157303370391,0.8032786885245902
812,4,0,2,False,0.15130269992250245,0.22831561696265285,0.27419354838709675,0.02272727272749927,0.011363636363749634,1.0000000000002374,0.6885245901639344
812,0,0,0,True,0.020394939348266417,0.026652462715711825,0.016129032258064516,0.022727272727261938,0.011363636363749634,0.09090909090928509,0.7540983606557377
812,0,0,0,True,0.017805112324502617,0.028212724134616275,0.06451612903225806,0.022222222222443962,0.011111111111221981,0.08888888888861558,0.7540983606557377
820,5,5,5,True,0.11098415873647573,0.18491906055779578,0.25806451612903225,0.028571428571426506,0.014285714285712087,0.5857142857142819,0.5737704918032787
820,5,5,5,True,0.11944608598850534,0.19320842983534306,0.22580645161290322,0.028169014084530864,0.014084507042265432,0.5915492957746518,0.5737704918032787
820,6,5,6,False,0.1459511955267819,0.24614195448049633,0.2903225806451613,0.035714285714287045,0.014285714285726007,1.0142857142857074,0.5409836065573771
820,5,5,5,True,0.12023369113437454,0.1971286166612704,0.24193548387096775,0.028169014084493578,0.014084507042246789,0.5915492957746593,0.4098360655737705
820,5,5,5,True,0.1245078812088864,0.20487721068202877,0.2903225806451613,0.042857142857122076,0.01428571428570736,0.6142857142857148,0.4918032786885246
820,6,6,6,False,0.1277243247335622,0.21298418262322935,0.3064516129032258,0.04285714285712048,0.014285714285781416,0.5999999999999851,0.4426229508196721
820,5,5,5,True,0.1186974182947503,0.19073064335235945,0.24193548387096775,0.042253521126815456,0.014084507042247306,0.6197183098591756,0.5737704918032787
820,3,3,3,True,0.08944009989521035,0.14774385123095657,0.14516129032258066,0.02816901408449254,0.01408450704224627,0.6197183098591301,0.639344262295082
820,6,6,6,True,0.11808142700267847,0.19564089156321285,0.3064516129032258,0.03521126760565504,0.014084507042247306,0.5352112676056918,0.4262295081967213
820,4,4,4,True,0.10442786149602046,0.17159578654691515,0.1935483870967742,0.03571428571426707,0.014285714285781416,0.5999999999999851,0.5737704918032787
820,4,4,4,True,0.10206753430299798,0.1695295697777725,0.20967741935483872,0.02142857142863643,0.014285714285707893,0.5857142857143219,0.5081967213114754
820,3,3,3,True,0.09137250605863621,0.14879888561727006,0.16129032258064516,0.028571428571415786,0.014285714285707893,0.571428571428614,0.3442622950819672
820,6,6,6,True,0.12462739942806686,0.20795100441419284,0.2903225806451613,0.03571428571434432,0.014285714285707893,0.5857142857143219,0.5573770491803278
820,4,4,4,True,0.10220769707955615,0.16914203216277945,0.1935483870967742,0.028571428571415786,0.014285714285707893,0.571428571428614,0.47540983606557374
820,5,5,5,True,0.11225541937342184,0.18603430533491014,0.24193548387096775,0.028571428571415786,0.014285714285707893,0.5857142857143219,0.47540983606557374
820,5,5,5,True,0.11487340325212637,0.18849724439535587,0.2903225806451613,0.028985507246359263,0.014492753623028293,0.6086956521738472,0.3442622950819672
820,6,6,6,False,0.12982165085159106,0.21565657531091284,0.3064516129032258,0.028571428571415786,0.014285714285707893,0.6000000000000298,0.45901639344262296
820,4,4,4,True,0.1009993125267425,0.16771590145524798,0.22580645161290322,0.014492753623333165,0.014492753623181826,0.5942028985507576,0.3770491803278688
820,5,5,5,True,0.11335090613209949,0.18612072113368858,0.25806451612903225,0.028985507246363652,0.014492753623181826,0.5942028985507576,0.4262295081967213
820,5,5,5,True,0.11438857653240422,0.1899119980379535,0.25806451612903225,0.028571428571415786,0.014285714285707893,0.6142857142857377,0.47540983606557374
820,6,6,6,True,0.12015407640403335,0.1994390073202182,0.3225806451612903,0.028985507246514993,0.014492753623181826,0.5797101449275757,0.4098360655737705
820,5,5,5,True,0.1171119983561708,0.19308123858071838,0.25806451612903225,0.028985507246514993,0.014492753623333165,0.608695652174242,0.6065573770491803
820,5,5,5,True,0.11015715978339442,0.18309216232730444,0.24193548387096775,0.028985507246514993,0.014492753623333165,0.5797101449278784,0.5081967213114754
820,4,4,4,True,0.10503300340157337,0.17867948090004446,0.22580645161290322,0.028985507246363652,0.014492753623333165,0.5942028985509089,0.47540983606557374
820,4,4,4,True,0.09436040046835104,0.1560401026929093,0.1935483870967742,0.044117647058656416,0.014705882353090225,0.5441176470591171,0.6065573770491803
820,6,6,6,True,0.12004899609259378,0.19408600391165443,0.3064516129032258,0.02898550724666633,0.014492753623333165,0.5652173913045452,0.6065573770491803
820,5,5,5,True,0.106402338160205,0.17705363983429148,0.24193548387096775,0.044117647058642864,0.014705882353085708,0.5588235294117285,0.4098360655737705
820,5,5,5,True,0.11141589566048649,0.18218569018728395,0.25806451612903225,0.029411764706026886,0.014705882353090225,0.6176470588236469,0.4426229508196721
820,5,5,5,True,0.10635269107708915,0.17692289166575303,0.24193548387096775,0.022058823529481773,0.014705882352783094,0.5735294117646833,0.45901639344262296
820,8,8,8,False,0.130219979430807,0.2165191045439094,0.3870967741935484,0.04545454545467491,0.030303030302694687,0.6060606060608553,0.5409836065573771
820,7,6,7,False,0.14780557554684814,0.249830664835025,0.3548387096774194,0.044117647058656416,0.014705882353090225,0.9852941176475241,0.6229508196721312
820,4,4,4,True,0.09992547872952794,0.16585691839983224,0.1935483870967742,0.029411764705864287,0.014705882353085708,0.5882352941175929,0.47540983606557374
820,5,5,5,True,0.11025275498711713,0.18477232336811816,0.24193548387096775,0.029850746268642758,0.014925373134477237,0.6119402985073324,0.4426229508196721
820,6,6,6,True,0.1268041104983546,0.21104797156391392,0.3064516129032258,0.029411764706171416,0.014705882353085708,0.5882352941179,0.5737704918032787
820,7,6,7,False,0.13757799920027616,0.23518554909056477,0.3225806451612903,0.029411764705864287,0.014705882353085708,0.6911764705882715,0.6065573770491803
820,6,6,6,True,0.11582014573036056,0.1950647759292027,0.2903225806451613,0.029850746268633453,0.01492537313416087,0.5671641791046591,0.4918032786885246
821,9,9,8,True,0.10887877183267598,0.18450244813678388,0.5645161290322581,0.038461538461537374,0.01923076923076947,0.46153846153846106,0.4918032786885246
821,11,10,9,True,0.11071492815147106,0.1874246743532894,0.5483870967741935,0.03846153846154522,0.01923076923077261,0.4807692307692274,0.5409836065573771
821,11,10,9,True,0.12509799563852952,0.21028333343075753,0.5645161290322581,0.028846153846140088,0.01923076923076006,0.6346153846154082,0.47540983606557374
821,17,14,9,False,0.16587276846213533,0.25726701943561975,0.6774193548387096,0.10576923076920808,0.057692307692281626,0.826923076923105,0.6721311475409836
821,14,14,13,False,0.1401008894578423,0.22943126579170434,0.7096774193548387,0.10576923076923318,0.057692307692281626,0.7115384615384914,0.6885245901639344
821,9,9,8,True,0.1031429636357645,0.17653266480498847,0.5967741935483871,0.028846153846165914,0.01923076923076054,0.4423076923076933,0.7868852459016393
821,11,10,11,True,0.11547455379272889,0.1968277918238782,0.5967741935483871,0.019230769230810747,0.01923076923076054,0.5384615384615462,0.7049180327868853
821,13,12,8,True,0.11265835006565429,0.18455516554644832,0.6290322580645161,0.03846153846161956,0.01923076923080978,0.576923076922988,0.5901639344262295
821,13,13,12,False,0.12799365722286507,0.21627140578374293,0.6451612903225806,0.05660377358488335,0.03773584905649039,0.4716981132076568,0.6557377049180327
821,9,9,9,True,0.11912259760127983,0.20476237712220094,0.5806451612903226,0.03773584905658518,0.01886792452829259,0.5094339622641956,0.5573770491803278
821,17,15,12,False,0.14455875790180966,0.23509670063671473,0.8064516129032258,0.20370370370370192,0.1111111111110574,0.5925925925924995,0.5245901639344263
821,16,16,15,False,0.15387218809276135,0.26209990941467615,0.8064516129032258,0.21698113207541408,0.13207547169804815,0.603773584905757,0.6065573770491803
821,13,13,13,False,0.13615275849299835,0.2327840178285407,0.6129032258064516,0.038461538461569356,0.019230769230759576,0.46153846153853106,0.7213114754098361
821,12,12,10,True,0.116674305281043,0.19785652314410868,0.6290322580645161,0.038461538461569356,0.019230769230759576,0.4230769230770119,0.639344262295082
821,15,14,7,True,0.11658896451898884,0.18580850338318944,0.6612903225806451,0.03846153846157322,0.019230769230761505,0.6538461538462929,0.6557377049180327
821,8,7,7,True,0.11478554912048643,0.1873617541216073,0.6290322580645161,0.02884615384624267,0.019230769230761505,0.6730769230770544,0.7049180327868853
821,16,15,12,False,0.1388914352247843,0.2376993893666393,0.7580645161290323,0.20192307692299583,0.11538461538456904,0.6538461538462929,0.6721311475409836
821,9,9,8,True,0.10111366596935156,0.1713452094538126,0.6451612903225806,0.038461538461422605,0.019230769230761505,0.4423076923077155,0.6065573770491803
821,11,11,7,True,0.12689333171389486,0.20574773046167621,0.6935483870967742,0.04807692307710459,0.019230769230962324,0.8269230769229456,0.5737704918032787
821,16,15,7,False,0.1480682282971832,0.23338519867924457,0.7741935483870968,0.13461538461533054,0.09615384615380754,0.7884615384618242,0.6885245901639344
821,10,10,9,True,0.12580002920088426,0.21083620044617546,0.6935483870967742,0.09615384615380754,0.05769230769228452,0.5961538461538075,0.5737704918032787
821,13,12,10,True,0.11011727614587116,0.1847847650725576,0.7258064516129032,0.03846153846172383,0.019230769230962324,0.46153846153827616,0.6885245901639344
821,10,10,8,True,0.10567654949314471,0.18058798093353,0.6935483870967742,0.0384615384616157,0.019230769230757644,0.44230769230782746,0.6721311475409836
821,10,9,8,True,0.12504774020377027,0.20521547200441265,0.5806451612903226,0.03846153846152301,0.019230769230761505,0.7115384615387782,0.639344262295082
821,13,12,12,True,0.11602492732251814,0.189653845505706,0.7096774193548387,0.06730769230766527,0.019230769230761505,0.615384615384569,0.6065573770491803
821,15,13,11,False,0.1453861669980548,0.22820004451957926,0.6451612903225806,0.03846153846152301,0.019230769230761505,0.692307692307615,0.6557377049180327
821,12,12,10,True,0.12139451206607337,0.19969163876584736,0.6935483870967742,0.048076923077004174,0.019230769230962324,0.5961538461542092,0.5901639344262295
821,10,10,10,True,0.11119592820845803,0.1874847616581652,0.6774193548387096,0.02884615384624267,0.019230769230761505,0.423076923076954,0.5737704918032787
821,11,10,9,True,0.1201683310672135,0.19836898279337456,0.6290322580645161,0.01960784313775474,0.019607843137038103,0.6470588235294238,0.5573770491803278
821,10,9,8,True,0.11417858173490006,0.19007073639598768,0.6774193548387096,0.05769230769228452,0.019230769230962324,0.5961538461542092,0.6721311475409836
821,10,10,8,True,0.10278792207320157,0.17233078342469768,0.7096774193548387,0.04807692307740581,0.03846153846152301,0.4038461538461925,0.639344262295082
821,10,10,9,True,0.12012565553316727,0.1994183242161447,0.7096774193548387,0.11764705882345715,0.05882352941152382,0.5294117647061715,0.5901639344262295
821,15,15,10,False,0.151691767748095,0.26232208796489304,0.6935483870967742,0.05769230769248534,0.03846153846152301,0.6153846153847699,0.6721311475409836
821,13,12,11,False,0.13191209095138734,0.22508466868055824,0.6774193548387096,0.03846153846172383,0.019230769230962324,0.6346153846153305,0.6885245901639344
821,11,11,10,True,0.1212082636795652,0.20989547971785086,0.7419354838709677,0.11538461538436823,0.07692307692304602,0.5000000000002008,0.6557377049180327
821,11,11,9,True,0.11659410698780504,0.1991249119746168,0.6935483870967742,0.05769230769248534,0.019230769230962324,0.4423076923077155,0.639344262295082
821,14,14,12,False,0.1326824669493635,0.22501884387104018,0.7419354838709677,0.09615384615380754,0.03846153846152301,0.5192307692307615,0.5737704918032787
821,17,17,14,False,0.15299016899006648,0.2507535169765609,0.7903225806451613,0.2115384615385774,0.11538461538497068,0.5769230769232468,0.6557377049180327
821,16,15,15,False,0.16388320024359582,0.27651802742382764,0.7903225806451613,0.23076923076913808,0.15384615384609204,0.5769230769232468,0.639344262295082
821,16,15,13,False,0.15493327403704477,0.25151529588678323,0.6290322580645161,0.12500000000025102,0.019230769230962324,0.6538461538462929,0.5409836065573771
821,16,15,13,False,0.1510781700357699,0.2543525869079899,0.8064516129032258,0.19230769230761507,0.09615384615360673,0.6923076923078159,0.7213114754098361
821,15,15,14,False,0.14281528166768273,0.24043187471272162,0.6774193548387096,0.03846153846192465,0.019230769230962324,0.5192307692307615,0.6557377049180327
821,14,13,10,False,0.1450634907693131,0.23739946204767715,0.7419354838709677,0.1372549019607,0.09803921568600954,0.6862745098037047,0.6229508196721312
821,20,17,10,False,0.17185545498882868,0.2741872636692372,0.9032258064516129,0.2843137254901238,0.15686274509753334,0.6470588235296285,0.5737704918032787
821,15,14,12,False,0.14423973533854653,0.23569667739806485,0.6612903225806451,0.10784313725493809,0.03921568627448572,0.6666666666666666,0.5901639344262295
821,21,19,18,False,0.17683458456888626,0.2969887653802398,0.8548387096774194,0.35294117647037143,0.17647058823539047,0.7450980392156381,0.639344262295082
821,19,19,14,False,0.16378456747606057,0.269824040833113,0.7741935483870968,0.21153846153837658,0.13461538461553135,0.5961538461538075,0.639344262295082
821,20,18,12,False,0.1631169042402986,0.27097707902759216,0.7580645161290323,0.2500000000003012,0.13461538461512973,0.5576923076922845,0.6885245901639344
822,30,30,0,True,0.08863458004755265,0.17507287721630818,1.0,0.1597222222222248,0.06944444444443827,0.22222222222221516,1.0
822,32,32,0,True,0.09532044138926112,0.18875563299086287,1.0,0.16216216216217313,0.04054054054055651,0.2162162162162367,1.0
822,32,32,0,True,0.0892831559583649,0.176396484020238,1.0,0.162162162162176,0.05405405405408218,0.21621621621624054,1.0
822,32,32,0,True,0.08127527853626632,0.16063348452585918,1.0,0.15068493150685078,0.04109589041097556,0.19178082191782633,1.0
822,31,31,1,True,0.08264181398349435,0.15916228928902756,0.967741935483871,0.15540540540540468,0.05405405405406454,0.2162162162162229,0.9672131147540983
822,32,32,0,True,0.0868476236863998,0.17108615834738397,1.0,0.15540540540541017,0.04054054054059394,0.202702702702758,1.0
822,32,32,0,True,0.07534739609059596,0.1481819384026101,1.0,0.1351351351351485,0.05405405405417228,0.21621621621633635,1.0
822,32,32,0,True,0.07086831282877926,0.13953776673392657,1.0,0.13013698630137624,0.05479452054791777,0.19178082191785525,1.0
822,32,32,0,True,0.06743596413534368,0.13291884345346314,1.0,0.1216216216216407,0.05405405405410173,0.18918918918917965,1.0
822,32,32,0,True,0.06573834848184773,0.1298401006431441,1.0,0.12328767123289533,0.05479452054799321,0.17808219178081702,1.0
822,32,32,0,False,0.13893174019714677,0.21530508507780122,1.0,0.1216216216216407,0.08108108108104675,1.027027027027086,0.9836065573770492
822,31,31,0,True,0.06200387692958338,0.116491477396252,0.9354838709677419,0.1095890410959149,0.041095890411084315,0.17808219178088855,0.9508196721311475
822,5,5,0,True,0.03103662036876006,0.047051795539634754,0.1935483870967742,0.043478260869545475,0.014492753623333165,0.15942028985515141,0.5901639344262295
822,25,25,0,True,0.07509190801406435,0.14129210207797147,0.8548387096774194,0.15000000000000746,0.07142857142853946,0.21428571428576756,0.9344262295081968
822,3,3,1,True,0.058453146043608045,0.09557031860686799,0.04838709677419355,0.03030303030301592,0.01515151515150796,0.5909090909091269,0.32786885245901637
822,0,0,0,True,0.017617327159482703,0.019868207147961014,0.0,0.03076923076921594,0.01538461538460797,0.061538461538753184,0.4262295081967213
822,0,0,0,True,0.018136909245069586,0.024168838694713417,0.03225806451612903,0.03030303030301592,0.01515151515150796,0.07575757575769802,0.45901639344262296
822,0,0,0,True,0.02110343389435417,0.02342020779975685,0.016129032258064516,0.029850746268642758,0.014925373134321379,0.08955223880608414,0.39344262295081966
822,0,0,0,True,0.023636046424236085,0.02874325409446459,0.06451612903225806,0.03676470588241278,0.014705882352934402,0.10294117647054081,0.36065573770491804
822,19,19,0,True,0.07106769162063797,0.12979730147575663,0.6612903225806451,0.13970588235287681,0.05882352941173761,0.24999999999988481,0.8032786885245902
822,27,27,0,True,0.07467000724579123,0.1404968909665026,0.9032258064516129,0.13513513513505887,0.04054054054051766,0.2297297297298823,0.9344262295081968
822,27,27,0,True,0.06911859084161856,0.12524031094258445,0.8387096774193549,0.12837837837837648,0.040540540540658775,0.24324324324338817,0.8852459016393442
822,29,29,0,True,0.06449981690383311,0.12477379268480143,0.967741935483871,0.12162162162169408,0.040540540540658775,0.16216216216235285,0.9836065573770492
822,28,28,0,True,0.06708226557114955,0.12995069698067233,0.9354838709677419,0.13698630136980422,0.05479452054792169,0.21917808219197285,0.9344262295081968
822,29,29,0,True,0.06683771855364087,0.13032593780527463,0.9838709677419355,0.13513513513491773,0.040540540540658775,0.17567567567571762,0.9836065573770492
822,11,11,0,True,0.04465262167439093,0.0760579233249585,0.41935483870967744,0.0499999999997464,0.02857142857141152,0.1714285714287675,0.6557377049180327
822,3,3,0,True,0.033069728488490324,0.0523872521998484,0.3387096774193548,0.05714285714254174,0.02857142857112169,0.11428571428568018,0.639344262295082
822,15,15,0,True,0.057105825584568184,0.10371286366354822,0.5645161290322581,0.09999999999979114,0.04285714285726646,0.2142857142857356,0.6885245901639344
822,4,3,1,True,0.052911169229064636,0.0861350063870484,0.20967741935483872,0.03676470588225358,0.014705882353085708,0.48529411764691427,0.4426229508196721
822,0,0,0,True,0.021784359145471804,0.02272285249284626,0.016129032258064516,0.029411764705873318,0.014705882352783094,0.08823529411731283,0.4426229508196721
822,0,0,0,True,0.018801284095165818,0.02118186133626286,0.0,0.022058823529481773,0.014705882352783094,0.07352941176483686,0.4918032786885246
822,3,3,0,True,0.030681353998292152,0.04890462718963412,0.1774193548387097,0.029411764705873318,0.014705882353090225,0.17647058823585418,0.45901639344262296
822,13,13,0,True,0.05569198961442454,0.10187043580800864,0.5483870967741935,0.05882352941190021,0.02941176470618045,0.23529411764698654,0.7049180327868853
822,30,30,0,False,0.14383580815522387,0.22450883691783066,0.9516129032258065,0.1418918918919224,0.04054054054095244,1.0540540540546033,0.9344262295081968
822,8,8,0,True,0.04086024026792525,0.06387366652502476,0.3064516129032258,0.04347826086969682,0.028985507246363652,0.15942028985545412,0.6065573770491803
822,0,0,0,True,0.025682398626661305,0.024577331856682164,0.06451612903225806,0.037878787878684796,0.015151515151663781,0.10606060606069716,0.5081967213114754
823,10,10,6,True,0.11014791630489551,0.15882528897628412,0.43548387096774194,0.11111111111111208,0.05555555555555321,0.38888888888888756,0.5409836065573771
823,22,22,10,False,0.1285605130428397,0.20087418557762546,0.7258064516129032,0.20754716981132215,0.09433962264151455,0.37735849056604587,0.639344262295082
823,12,12,7,True,0.11817446266131353,0.17912208383665337,0.5806451612903226,0.15094339622640604,0.0566037735849038,0.5283018867924519,0.639344262295082
823,16,16,7,False,0.13614848932580348,0.2031503201725978,0.6290322580645161,0.18181818181817858,0.09090909090909523,0.5272727272727618,0.5901639344262295
823,0,0,0,True,0.023705941160402068,0.018273360686173065,0.016129032258064516,0.03389830508472926,0.01694915254236463,0.11864406779659667,0.5573770491803278
823,1,1,1,True,0.05717565702625379,0.08561603589024314,0.06451612903225806,0.0327868852458862,0.0163934426229431,0.5737704918032653,0.32786885245901637
823,0,0,0,True,0.014264101656963698,0.01627066115702799,0.0,0.0163934426229638,0.016393442622899605,0.0491803278689128,0.5081967213114754
823,0,0,0,True,0.021936030366029056,0.02127114715198973,0.0,0.03225806451611273,0.016129032258056366,0.09677419354842241,0.5901639344262295
823,0,0,0,True,0.03467901703580508,0.01774922984736141,0.0,0.0491803278688272,0.016393442623027995,0.1475409836065672,0.5901639344262295
823,0,0,0,True,0.0276964384775738,0.014900849485019586,0.0,0.048387096774173174,0.016129032258141936,0.09677419354843056,0.4918032786885246
823,0,0,0,True,0.022312129852341864,0.01788950260216328,0.0,0.03225806451615484,0.016129032258056366,0.09677419354842241,0.5573770491803278
823,0,0,0,True,0.01575291030307381,0.01726717692610889,0.0,0.0163934426229424,0.016393442622856805,0.081967213114712,0.6721311475409836
823,7,7,0,True,0.09325313329179064,0.09798815044657266,0.3225806451612903,0.08928571428567267,0.035714285714269066,0.392857142857053,0.6557377049180327
823,17,17,7,True,0.11576397745293585,0.1769988921913794,0.6774193548387096,0.17307692307691921,0.05769230769227294,0.3846153846153537,0.6885245901639344
823,15,15,5,True,0.11979628959882772,0.167746821560765,0.6290322580645161,0.17592592592595457,0.05555555555553407,0.40740740740744324,0.6229508196721312
823,17,17,6,True,0.12163541679994785,0.17748949075415024,0.6290322580645161,0.18518518518507776,0.0740740740740311,0.42592592592567885,0.6557377049180327
823,16,16,7,False,0.13089776179208826,0.20526547820664678,0.6935483870967742,0.12962962962977287,0.05555555555553407,0.40740740740744324,0.639344262295082
823,16,16,5,True,0.1186291934634965,0.18050456530489942,0.5645161290322581,0.1181818181817733,0.05454545454543383,0.41818181818184924,0.6557377049180327
823,17,17,7,False,0.13385798607989816,0.20613768711043431,0.7580645161290323,0.21818181818173532,0.09090909090924625,0.4545454545454718,0.6229508196721312
823,9,9,4,True,0.12211220799376855,0.1850654029505942,0.5967741935483871,0.10714285714298367,0.0535714285713986,0.6071428571430769,0.5573770491803278
823,8,8,6,True,0.10304297303109504,0.14961561643952978,0.5483870967741935,0.0877192982454903,0.03508771929841596,0.4210526315789763,0.5409836065573771
823,9,9,2,True,0.09753326056680758,0.13605139000163155,0.46774193548387094,0.04310344827592881,0.01724137931051556,0.4827586206895745,0.6229508196721312
823,10,10,4,True,0.11009888438618638,0.15208638354436202,0.45161290322580644,0.07894736842119245,0.03508771929822633,0.4385964912280123,0.6721311475409836
823,6,6,4,True,0.08838765168607554,0.1201643920189323,0.25806451612903225,0.03448275862076105,0.017241379310335515,0.46551724137923894,0.5901639344262295
823,10,10,3,True,0.1001973037104048,0.13854375228389945,0.4032258064516129,0.04310344827593657,0.01724137931033862,0.4137931034483069,0.6065573770491803
823,4,4,2,True,0.07099964267412708,0.1048236099932663,0.2903225806451613,0.033898305084904753,0.01694915254236388,0.4406779661016379,0.5245901639344263
823,5,5,1,True,0.06729682897230461,0.08188918743575664,0.2903225806451613,0.03389830508463927,0.01694915254236388,0.38983050847454626,0.5901639344262295
823,7,7,2,True,0.09458109296907809,0.1338140815928178,0.3064516129032258,0.05172413793081719,0.017241379310872537,0.4310344827584903,0.5901639344262295
823,4,4,2,True,0.07089224188107328,0.09868555518482226,0.16129032258064516,0.03389830508472776,0.016949152542540872,0.4406779661014609,0.4918032786885246
823,7,7,2,True,0.10724334510596228,0.14134667320478086,0.3548387096774194,0.06896551724135448,0.03448275862067724,0.4482758620691642,0.5737704918032787
823,13,13,7,True,0.12178707817547423,0.1798381453236776,0.6129032258064516,0.17857142857129538,0.07142857142814521,0.42857142857148184,0.5901639344262295
823,8,8,6,True,0.11371583116358272,0.16945745943205776,0.4032258064516129,0.06896551724135448,0.03448275862067724,0.4482758620691642,0.5573770491803278
823,10,10,3,True,0.10726480922862992,0.14883981046820832,0.3709677419354839,0.02542372881364332,0.01694915254219289,0.47457627118706464,0.6721311475409836
823,4,4,3,True,0.07242551356651139,0.09535759384454283,0.1774193548387097,0.03448275862067724,0.017241379310158577,0.41379310344848697,0.4426229508196721
823,14,14,3,True,0.1205722683498343,0.16616008003579608,0.532258064516129,0.11016949152566971,0.03389830508509374,0.47457627118671064,0.6229508196721312
823,5,5,2,True,0.08354847062450499,0.1250965313689489,0.27419354838709675,0.03333333333331013,0.016666666666829106,0.45000000000020884,0.47540983606557374
823,5,5,2,True,0.08656072101556932,0.10285624983458,0.2903225806451613,0.04999999999998259,0.016666666666834907,0.4666666666668523,0.4918032786885246
823,5,5,2,True,0.09201370584331142,0.13066041115152782,0.20967741935483872,0.03389830508472776,0.016949152542540872,0.5932203389832669,0.5737704918032787
823,10,10,4,True,0.10197723576595404,0.13090440674497014,0.3225806451612903,0.050000000000330676,0.016666666666834907,0.40000000000020886,0.6229508196721312
823,10,10,6,True,0.0987016282856758,0.13951704940312779,0.3064516129032258,0.050000000000156634,0.016666666666834907,0.40000000000020886,0.5901639344262295
823,13,13,5,True,0.112093571097191,0.15781301238020667,0.5,0.12068965517237033,0.03448275862067724,0.43103448275864553,0.6229508196721312
823,6,6,1,True,0.07794577785183059,0.10168336117482532,0.22580645161290322,0.033333333333669814,0.016666666666834907,0.39999999999986074,0.45901639344262296
823,2,2,1,True,0.05687321223705852,0.07457869008055225,0.16129032258064516,0.03333333333332173,0.016666666666486824,0.4166666666670438,0.5737704918032787
823,18,18,6,False,0.1372148739861536,0.19790994435995027,0.6129032258064516,0.21428571428555446,0.10714285714240428,0.42857142857148184,0.6557377049180327
824,8,8,9,True,0.11955881901188019,0.19075962641006472,0.532258064516129,0.07857142857142599,0.042857142857138694,0.45714285714284963,0.5901639344262295
824,10,8,9,False,0.15480287189041927,0.2538369253700557,0.6129032258064516,0.06338028169014272,0.028169014084511963,0.8028169014084531,0.5901639344262295
824,8,8,6,True,0.10209473592581764,0.16720995869718525,0.3548387096774194,0.04347826086958249,0.02898550724638202,0.40579710144931047,0.4918032786885246
824,9,9,7,True,0.11603731833423782,0.18649167170487588,0.46774193548387094,0.05714285714286886,0.02857142857145308,0.44285714285716843,0.4918032786885246
824,3,3,3,True,0.06484035940751724,0.1013858022732378,0.1935483870967742,0.028985507246401487,0.01449275362321966,0.4057971014492803,0.47540983606557374
824,4,4,4,True,0.0815549523949892,0.12999851113599828,0.2903225806451613,0.044117647058841594,0.014705882353011185,0.4264705882352512,0.39344262295081966
824,6,6,5,True,0.08972603067380355,0.14328045032454373,0.3387096774193548,0.057971014492727305,0.028985507246363652,0.3768115942028788,0.5901639344262295
824,4,3,4,True,0.089477286249599,0.14535127925986022,0.24193548387096775,0.036764705882409966,0.029411764705789763,0.6911764705881709,0.4426229508196721
824,5,5,3,True,0.08069277743950698,0.12503099950052818,0.27419354838709675,0.029411764705945587,0.014705882353011185,0.4117647058823936,0.5081967213114754
824,6,6,4,True,0.08645911399895272,0.13972833070854504,0.3064516129032258,0.04477611940296065,0.014925373134398146,0.3731343283582392,0.45901639344262296
824,6,6,3,True,0.08540986622443131,0.13144674228031103,0.3064516129032258,0.03731343283580345,0.014925373134321379,0.38805970149258967,0.45901639344262296
824,8,7,5,True,0.1055391920401596,0.1705914989468705,0.43548387096774194,0.0746268656716069,0.029850746268642758,0.49253731343291723,0.5573770491803278
824,6,6,3,True,0.09834380294479246,0.12581768997492168,0.24193548387096775,0.04477611940296414,0.029850746268642758,0.4477611940299531,0.4262295081967213
824,6,6,4,True,0.08558994657365496,0.12947184395503258,0.3387096774193548,0.0441176470588032,0.029411764705868804,0.39705882352938243,0.4262295081967213
824,9,9,6,True,0.10692741078277126,0.17136278438994793,0.45161290322580644,0.04477611940304207,0.029850746268642758,0.38805970149251173,0.6065573770491803
824,3,3,2,True,0.07749476499769414,0.10677843517246063,0.3387096774193548,0.0757575757575398,0.03030303030301592,0.40909090909103135,0.5081967213114754
824,6,6,6,True,0.10541371168566671,0.1748901288231046,0.27419354838709675,0.03731343283580345,0.014925373134321379,0.716417910447738,0.4098360655737705
824,9,9,6,False,0.13688504354059583,0.22163562490108335,0.41935483870967744,0.07142857142868864,0.04285714285712368,0.7571428571429658,0.45901639344262296
824,6,6,5,True,0.10213310691757502,0.156917887692609,0.4032258064516129,0.049999999999977625,0.028571428571415786,0.42857142857153513,0.5081967213114754
824,2,2,1,True,0.05596887576751026,0.08536181019043235,0.22580645161290322,0.043478260869545475,0.014492753623181826,0.3623188405798483,0.39344262295081966
824,2,2,2,True,0.0544174998935093,0.08674224634907404,0.12903225806451613,0.02941176470602237,0.014705882353087967,0.33823529411779835,0.39344262295081966
824,2,2,1,True,0.05777637264325684,0.08704979244059562,0.12903225806451613,0.03676470588241278,0.014705882352934402,0.3529411764705792,0.36065573770491804
824,1,1,1,True,0.0468120214283794,0.06806150473454754,0.12903225806451613,0.029411764706026886,0.02941176470556619,0.3823529411766603,0.39344262295081966
824,6,5,3,True,0.11111064999021475,0.17528613080674504,0.2903225806451613,0.04411764705880998,0.014705882353397356,0.8382352941178504,0.4918032786885246
824,1,1,0,True,0.0422063564566688,0.056237398882704945,0.08064516129032258,0.029411764705864287,0.014705882353085708,0.33823529411759284,0.4918032786885246
824,5,5,3,True,0.09072635555153623,0.1317934304728419,0.22580645161290322,0.044117647058642864,0.014705882353085708,0.5147058823527786,0.39344262295081966
824,4,4,2,True,0.07904198837807645,0.12093818279221574,0.20967741935483872,0.058823529411728574,0.029411764705864287,0.41176470588240716,0.5245901639344263
824,8,8,2,True,0.10060014178592035,0.15796448810341104,0.3387096774193548,0.04285714285698089,0.02857142857112169,0.41428571428573985,0.5081967213114754
824,7,7,5,True,0.0941580202874458,0.14989582613718536,0.3064516129032258,0.058823529411728574,0.029411764705864287,0.38235294117654284,0.6229508196721312
824,3,3,3,True,0.06711979475276086,0.10477563095609205,0.20967741935483872,0.029411764706017852,0.014705882353085708,0.42647058823518574,0.47540983606557374
824,8,8,6,True,0.11911181831667042,0.162725065162924,0.5,0.07462686567176276,0.04477611940280828,0.5223880597017159,0.5081967213114754
824,7,7,3,True,0.1104258566513208,0.172735982732652,0.3709677419354839,0.06617647058827143,0.029411764706171416,0.7352941176469143,0.5245901639344263
824,4,4,4,True,0.06844790639822565,0.10679154829613872,0.1774193548387097,0.04545454545437285,0.015151515151668576,0.3484848484848964,0.39344262295081966
824,4,2,2,False,0.20239246060286134,0.2016738924544344,0.8225806451612904,0.2272727272730725,0.10909090909084695,0.927272727272389,0.639344262295082
824,1,1,2,True,0.11677276857563809,0.13605413801130836,0.46774193548387094,0.10869565217393937,0.057971014492727305,0.5217391304348484,0.4918032786885246
824,1,1,2,True,0.07885478874902987,0.11873260118291289,0.27419354838709675,0.058823529411728574,0.029411764705864287,0.38235294117654284,0.47540983606557374
824,11,11,8,False,0.1307589605299736,0.1837934325785466,0.532258064516129,0.08823529411759286,0.044117647058642864,0.45588235294105,0.6229508196721312
825,7,7,7,False,0.16030015255025865,0.26410736859919753,0.41935483870967744,0.04310344827586607,0.017241379310347835,0.6896551724137924,0.4098360655737705
825,7,7,9,False,0.17806249057333012,0.2928853844806875,0.4838709677419355,0.051724137931032546,0.017241379310347933,0.6379310344827497,0.5409836065573771
825,5,5,5,False,0.13487052493073243,0.22359373859714066,0.25806451612903225,0.017241379310359184,0.017241379310336678,0.6724137931034455,0.5081967213114754
825,6,6,6,False,0.14516764015528505,0.24026689008644586,0.3225806451612903,0.03448275862068383,0.017241379310336293,0.6551724137930941,0.5737704918032787
825,6,6,5,False,0.1411940307185021,0.22097539421894574,0.3064516129032258,0.034482758620672585,0.017241379310336293,0.6379310344827579,0.47540983606557374
825,7,7,7,False,0.15608281434319207,0.254405658484041,0.41935483870967744,0.04310344827588574,0.0172413793103813,0.6379310344827579,0.47540983606557374
825,7,7,5,False,0.1444515068767726,0.22473359760555983,0.3387096774193548,0.03448275862069664,0.017241379310337066,0.6379310344827416,0.6065573770491803
825,6,6,6,False,0.1419418914667138,0.22836785285413133,0.3387096774193548,0.02586206896555061,0.017241379310337066,0.6206896551724045,0.45901639344262296
825,7,7,6,False,0.15026400319393746,0.24367493316194397,0.3225806451612903,0.04310344827579766,0.017241379310337066,0.6896551724138428,0.45901639344262296
825,8,8,8,False,0.16685589610098295,0.2755185236124188,0.43548387096774194,0.0517241379310112,0.017241379310337066,0.6379310344828316,0.5081967213114754
825,2,2,2,True,0.08688168415762883,0.13988494578430397,0.12903225806451613,0.02586206896555061,0.017241379310337066,0.6896551724137527,0.5573770491803278
825,7,7,7,False,0.15423873375412175,0.25740202902799486,0.3548387096774194,0.034482758620719145,0.017241379310337066,0.6379310344827416,0.6065573770491803
825,5,5,5,False,0.13337631657223145,0.21279709012254233,0.3225806451612903,0.03448275862067413,0.017241379310337066,0.7068965517240898,0.5573770491803278
825,3,3,3,True,0.10507328066194385,0.17083869827224032,0.14516129032258066,0.01724137931051556,0.017241379310155472,0.6551724137929296,0.5409836065573771
825,0,0,0,True,0.01245817123886311,0.01633280028419038,0.0,0.01724137931033862,1.8004231668753925e-13,0.06896551724135448,0.6229508196721312
825,0,0,0,True,0.017330693879083717,0.01681376600152138,0.03225806451612903,0.016949152542455378,0.016949152542189892,0.0847457627120114,0.5737704918032787
825,0,0,0,True,0.012733951622793416,0.014206152926160334,0.0,0.017241379310335515,1.8004231668750684e-13,0.05172413793118659,0.6065573770491803
825,3,3,3,True,0.10711086826078667,0.17646455941624667,0.1774193548387097,0.01724137931051556,0.017241379310335515,0.6551724137932897,0.6721311475409836
825,0,0,0,True,0.012230734827203589,0.015811133950168605,0.0,0.016949152542366883,0.016949152542189892,0.05084745762727764,0.6065573770491803
825,2,2,2,True,0.0857154989203114,0.13907409085235772,0.0967741935483871,0.017241379310335515,1.8004231668750684e-13,0.6379310344825941,0.5245901639344263
825,2,2,2,True,0.08511943118678748,0.13919943818793157,0.0967741935483871,0.017241379310335515,0.017241379310155472,0.6551724137929296,0.6721311475409836
825,0,0,0,True,0.012755918762412943,0.0210716564467585,0.0967741935483871,0.00862068965525933,1.8004231668753925e-13,0.0517241379311959,0.6229508196721312
825,1,1,1,True,0.05018692192401201,0.08389888123984396,0.06451612903225806,0.01724137931051556,0.017241379310335515,0.534482758620761,0.6557377049180327
825,0,0,0,True,0.012581962912580853,0.018826946385865087,0.0,0.01724137931033862,1.8004231668753925e-13,0.0517241379311959,0.6229508196721312
825,1,1,1,True,0.05728116062276134,0.09780588215265953,0.04838709677419355,0.017241379310425537,1.8004231668750684e-13,0.6206896551722586,0.6229508196721312
825,1,1,1,True,0.061932208444259104,0.10022715912430356,0.04838709677419355,0.01724137931042864,0.017241379310158577,0.6379310344827089,0.5245901639344263
825,3,3,3,True,0.10299512907813203,0.16815770534985872,0.1774193548387097,0.017241379310512454,0.01724137931015237,0.6379310344824792,0.5901639344262295
825,0,0,0,True,0.012873054142666403,0.014741113248018523,0.0,0.01724137931051866,3.600846333750785e-13,0.0517241379311959,0.4426229508196721
825,1,1,1,True,0.06327526116929202,0.1044395210445289,0.04838709677419355,0.016949152542540872,0.01694915254218689,0.6610169491523684,0.5409836065573771
825,6,6,6,False,0.14631002036060248,0.24070060486441291,0.3709677419354839,0.01694915254254687,0.01694915254219289,0.6440677966104095,0.5081967213114754
825,3,3,3,True,0.1040665384938062,0.1688094737812238,0.16129032258064516,0.017241379310512454,0.01724137931015237,0.6206896551723269,0.5409836065573771
825,1,1,1,True,0.05831488555960601,0.09364370920679119,0.04838709677419355,0.017241379310512454,0.017241379309792283,0.6034482758621745,0.5081967213114754
825,3,3,3,True,0.09506024850600366,0.15280007623813802,0.1774193548387097,0.017241379310512454,0.01724137931015237,0.6724137931031441,0.5409836065573771
825,1,1,1,True,0.06186008029180261,0.10044084196109568,0.06451612903225806,0.017241379310512454,0.01724137931015237,0.6379310344821192,0.5409836065573771
825,7,7,6,False,0.15242360398957278,0.23988797909922882,0.3387096774193548,0.017241379310512454,0.01724137931015237,0.6379310344824792,0.4262295081967213
825,3,3,3,True,0.10091217987426511,0.16163434787629807,0.1935483870967742,0.03448275862067724,0.017241379310158577,0.6206896551729104,0.4918032786885246
825,2,2,2,True,0.08566044799081948,0.1395359713201972,0.11290322580645161,0.017241379310512454,0.01724137931015237,0.6551724137933518,0.39344262295081966
825,2,2,2,True,0.08393816953936528,0.13677174470960082,0.0967741935483871,0.01694915254236388,0.0,0.6271186440676406,0.4426229508196721
825,5,5,5,False,0.13051938596824472,0.21170311879377482,0.25806451612903225,0.03389830508472776,0.01694915254218689,0.6271186440676406,0.45901639344262296
825,4,4,4,True,0.11726725510319597,0.18965108852479398,0.24193548387096775,0.01694915254254687,0.01694915254219289,0.6440677966107634,0.5901639344262295
825,5,5,5,False,0.13222388514002298,0.21620649733639505,0.24193548387096775,0.03389830508472776,0.016949152542540872,0.6271186440679946,0.6229508196721312
825,4,4,4,True,0.12277494741652305,0.20184932344537798,0.22580645161290322,0.04237288135582121,0.016949152542540872,0.6949152542374502,0.5737704918032787
825,2,2,2,True,0.08103659709600493,0.1320175106908668,0.11290322580645161,0.01694915254218689,3.539815039957794e-13,0.6101694915250997,0.4098360655737705
826,8,8,6,False,0.14299620634440557,0.19244569368828426,0.5806451612903226,0.04032258064516061,0.016129032258067402,0.6612903225806477,0.5901639344262295
826,5,5,5,True,0.12259726745422664,0.19738848985089624,0.25806451612903225,0.0327868852459069,0.01639344262294275,0.6557377049180417,0.5901639344262295
826,4,4,4,True,0.10735448631733828,0.17328657590637564,0.4032258064516129,0.032258064516134465,0.01612903225807776,0.6290322580645062,0.5901639344262295
826,6,6,8,False,0.1788209761945951,0.2844101655803316,0.6451612903225806,0.0725806451612988,0.048387096774171134,1.1129032258064835,0.5409836065573771
826,2,2,5,False,0.1313786963403309,0.21137884726158285,0.5161290322580645,0.0322580645161562,0.01612903225809915,0.6290322580644774,0.5409836065573771
826,0,0,2,True,0.07724734736343115,0.1288945886100978,0.6612903225806451,0.0322580645161562,0.01612903225809915,0.2741935483871382,0.6229508196721312
826,0,0,7,False,0.15442304740300064,0.23931632873374567,0.8548387096774194,0.2016129032257888,0.09677419354842241,0.6612903225806479,0.5573770491803278
826,0,0,8,False,0.15152543282611236,0.25356624530890964,0.5967741935483871,0.0483870967741691,0.01612903225814058,0.6612903225806479,0.6065573770491803
826,3,3,5,True,0.11102041615457653,0.18697683813052401,0.3548387096774194,0.03225806451619695,0.016129032258056366,0.6451612903225915,0.6721311475409836
826,5,5,5,True,0.0996081299577863,0.1690265281398261,0.41935483870967744,0.024193548387042442,0.016129032258056366,0.629032258064451,0.6557377049180327
826,6,6,9,False,0.15046995555108417,0.2439663714196837,0.7580645161290323,0.12096774193550697,0.0483870967741691,0.6935483870967606,0.5901639344262295
826,0,0,7,False,0.13006424920177487,0.21074523780814308,0.7419354838709677,0.16935483870963394,0.0967741935483382,0.6451612903225074,0.6557377049180327
826,0,0,9,False,0.15651656540263528,0.24585640939293166,0.8548387096774194,0.22580645161278914,0.11290322580639457,0.6290322580647035,0.6229508196721312
826,0,0,10,False,0.17635634647062265,0.25851044175591514,0.6774193548387096,0.12903225806453514,0.0483870967741691,0.7258064516128734,0.5901639344262295
826,0,0,12,False,0.1688490123447804,0.26623464198213337,0.6451612903225806,0.055555555555693685,0.031746031746181715,0.6507936507936587,0.6721311475409836
826,0,0,9,False,0.15925730514652353,0.24077210272813016,0.7096774193548387,0.1532258064516197,0.0483870967741691,0.6935483870967606,0.6065573770491803
826,0,0,9,True,0.11931292728670267,0.19668255131924842,0.6774193548387096,0.04838709677425331,0.016129032258224794,0.5806451612905345,0.6557377049180327
826,0,0,12,False,0.13228428658176536,0.22368341806692887,0.7419354838709677,0.13709677419347913,0.06451612903222546,0.6451612903224231,0.6721311475409836
826,0,0,5,True,0.08590249581473614,0.14220976382597447,0.45161290322580644,0.03225806451594974,0.016129032257890655,0.45161290322582276,0.5737704918032787
826,2,2,2,True,0.055173495305100975,0.09480806655923187,0.27419354838709675,0.016393442623027995,0.016393442622771214,0.327868852458848,0.5081967213114754
826,4,4,2,True,0.08025059294156744,0.13865521539475303,0.6129032258064516,0.0409836065574416,0.01639344262311359,0.3278688524590192,0.639344262295082
826,0,0,1,True,0.08558121557410725,0.1468072412175414,0.7258064516129032,0.0655737704918552,0.0327868852458848,0.2950819672131344,0.6065573770491803
826,0,0,11,True,0.10691744723265312,0.18326203941608624,0.8225806451612904,0.17741935483878846,0.08064516129045025,0.4032258064515776,0.6229508196721312
826,0,0,9,False,0.1315354474717275,0.2167688015900851,0.9838709677419355,0.2786885245901064,0.1311475409835392,0.6229508196723248,0.639344262295082
826,0,0,13,True,0.11979519091143984,0.20251627804824882,0.9193548387096774,0.2622950819669072,0.1311475409835392,0.3934426229506176,0.6721311475409836
826,0,0,3,False,0.12902001286110842,0.20123186358302747,0.8225806451612904,0.2213114754096368,0.11475409836042562,0.622950819672496,0.6557377049180327
826,0,0,9,True,0.11537321121742929,0.1964207385542984,1.0,0.2622950819670784,0.114754098360768,0.3278688524591904,0.6557377049180327
826,0,0,8,False,0.14651588585827707,0.23909467466760548,0.7096774193548387,0.07377049180349758,0.03278688524622718,0.6557377049180384,0.5245901639344263
826,0,0,8,False,0.14117680276592443,0.22392496997607464,0.5483870967741935,0.03278688524605599,0.01639344262311359,0.6393442622952672,0.5573770491803278
826,0,0,5,True,0.11801634556603947,0.18471822163214177,0.45161290322580644,0.0327868852458848,0.016393442622771214,0.6393442622952672,0.5245901639344263
826,4,4,5,False,0.12927411032726566,0.1881939140578423,0.43548387096774194,0.0327868852458848,0.01639344262311359,0.655737704917696,0.5081967213114754
826,4,4,9,False,0.15867975263095477,0.23722849627079307,0.5,0.03278688524622718,0.01639344262311359,0.6393442622945824,0.5409836065573771
826,1,1,0,True,0.04082222759663009,0.06270960459516184,0.1774193548387097,0.01639344262311359,0.016393442622771214,0.3278688524591904,0.6885245901639344
826,3,3,2,True,0.09360027956577191,0.13960544361361782,0.25806451612903225,0.016666666666829106,0.016666666666481023,0.6333333333328924,0.6229508196721312
826,1,1,1,True,0.041465502083733195,0.07120363753297926,0.20967741935483872,0.0327868852458848,0.01639344262311359,0.2950819672129632,0.6557377049180327
826,6,6,4,False,0.13045273880674513,0.1745409998048993,0.2903225806451613,0.03278688524554243,0.016393442622771214,0.6885245901639232,0.5901639344262295
826,2,2,1,True,0.06799220952209106,0.0967246390182995,0.16129032258064516,0.01639344262311359,0.016393442622771214,0.557377049180384,0.6229508196721312
826,2,2,2,True,0.057581781317092046,0.0954724690133605,0.0967741935483871,0.0327868852458848,0.01639344262311359,0.5245901639344992,0.5901639344262295
826,1,1,1,True,0.0670543006951634,0.11142813315535717,0.16129032258064516,0.03278688524605599,0.01639344262311359,0.6393442622952672,0.6885245901639344
826,4,4,3,True,0.09571787095343912,0.14820157619819313,0.4032258064516129,0.03278688524622718,0.01639344262311359,0.6393442622949248,0.6721311475409836
826,5,5,3,True,0.12266782808957112,0.16789728271712218,0.3387096774193548,0.0327868852458848,0.01639344262311359,0.7213114754101504,0.6229508196721312
827,0,0,0,True,0.04038993217024036,0.028257835313158536,0.11290322580645161,0.051282051282051926,0.025641025641025963,0.19230769230769262,0.47540983606557374
827,1,1,1,True,0.0698648451825179,0.08713605609210968,0.27419354838709675,0.03086419753086589,0.012345679012356024,0.5802469135802497,0.5245901639344263
827,0,0,0,True,0.040892672359217085,0.049603701954232936,0.2903225806451613,0.06578947368422182,0.026315789473705907,0.17105263157896816,0.639344262295082
827,0,0,0,True,0.04545017540227314,0.04565665306883291,0.24193548387096775,0.04320987654322122,0.024691358024679422,0.19753086419753205,0.6557377049180327
827,1,1,0,True,0.04798561136779861,0.06056652591932042,0.08064516129032258,0.051282051282060724,0.025641025641013625,0.35897435897439156,0.39344262295081966
827,0,0,0,True,0.05219718076209278,0.045317397531740515,0.04838709677419355,0.06097560975613017,0.0243902439024266,0.29268292682924657,0.5245901639344263
827,0,0,0,True,0.01528455349793172,0.020498634812109194,0.016129032258064516,0.02352941176469432,0.01176470588234716,0.08235294117649154,0.4918032786885246
827,0,0,0,True,0.02311442702610447,0.03668596105101743,0.0967741935483871,0.0344827586206731,0.0114942528735577,0.16091954022986782,0.5573770491803278
827,0,0,0,True,0.016577640582565955,0.019303207541976255,0.0,0.023255813953477075,0.011627906976738538,0.06976744186055266,0.4262295081967213
827,0,0,0,True,0.027594651380310177,0.02418623117247054,0.03225806451612903,0.03488372093021561,0.011627906976859963,0.11627906976738539,0.4918032786885246
827,0,0,0,True,0.0380782281321801,0.05528272730521957,0.22580645161290322,0.04444444444448183,0.02222222222221191,0.24444444444444702,0.5081967213114754
827,0,0,0,True,0.018289181174351715,0.026190715065576728,0.04838709677419355,0.02222222222221191,0.011111111111105954,0.11111111111105955,0.5409836065573771
827,2,2,2,True,0.06649509114416051,0.11320738247980394,0.2903225806451613,0.033333333333317866,0.02222222222221191,0.5222222222222119,0.45901639344262296
827,0,0,0,True,0.036584182486805596,0.04504348734945223,0.24193548387096775,0.04444444444448183,0.02222222222221191,0.17777777777792733,0.45901639344262296
827,1,1,1,True,0.05094394725082172,0.07748582008746611,0.12903225806451613,0.03260869565215911,0.010869565217386369,0.44565217391295464,0.4918032786885246
827,2,2,2,True,0.05133616997907319,0.07954672548982823,0.20967741935483872,0.027173913043465923,0.010869565217386369,0.34782608695659084,0.6229508196721312
827,0,0,0,True,0.022340732440440766,0.024511212187995842,0.04838709677419355,0.02222222222221191,0.011111111111105954,0.11111111111117557,0.5081967213114754
827,0,0,0,True,0.03450739997631649,0.04390351827318793,0.1774193548387097,0.04494382022469273,0.022471910112346366,0.17977528089877093,0.6721311475409836
827,0,0,0,True,0.014426890875619675,0.018581780390740956,0.016129032258064516,0.011235955056293151,0.01123595505605849,0.06741573033705492,0.5081967213114754
827,2,2,2,True,0.07008336084938442,0.10524534670815368,0.1774193548387097,0.06741573033680444,0.03370786516863688,0.5056179775281453,0.47540983606557374
827,4,4,2,True,0.1050715637510047,0.15044438852770894,0.2903225806451613,0.033707865168762126,0.02247191011235164,0.6966292134831356,0.6065573770491803
827,0,0,0,True,0.020374413065281535,0.025871169056444474,0.04838709677419355,0.02247191011235164,0.011235955056293151,0.11235955056199287,0.4918032786885246
827,1,1,0,True,0.0372580022633509,0.03682200057560727,0.016129032258064516,0.022727272727380603,0.011363636363749634,0.2954545454544052,0.47540983606557374
827,0,0,0,True,0.021515902016196433,0.021205617629651126,0.016129032258064516,0.03333333333343389,0.011111111111221981,0.08888888888907968,0.4918032786885246
827,1,1,1,True,0.05300520872230413,0.08748412317339888,0.12903225806451613,0.022471910112346366,0.011235955056290515,0.5056179775279106,0.5573770491803278
827,2,2,2,True,0.059385225531744926,0.09838375813662484,0.11290322580645161,0.022471910112346366,0.011235955056290515,0.4831460674157989,0.5737704918032787
827,0,0,0,True,0.019470065322372648,0.028300919899497547,0.03225806451612903,0.02272727272702461,0.011363636363512305,0.13636363636380897,0.5081967213114754
827,0,0,0,True,0.01634262550248752,0.01751704067967273,0.0,0.022727272727261938,0.011363636363512305,0.07954545454529813,0.6065573770491803
827,1,1,1,True,0.045486094947621916,0.07216699615923187,0.12903225806451613,0.02247191011235164,0.011235955056293151,0.43820224719097434,0.47540983606557374
828,11,11,4,False,0.23393482451135716,0.37550144635263527,0.46774193548387094,0.08421052631578534,0.04210526315789181,0.6421052631578956,0.47540983606557374
828,15,15,4,False,0.2789705494168408,0.4506734111244567,0.6451612903225806,0.442708333333347,0.04166666666666043,0.6979166666666609,0.5573770491803278
828,16,16,5,False,0.2536791258539782,0.4197733096484494,0.5483870967741935,0.09473684210525751,0.04210526315787391,0.7052631578947453,0.7049180327868853
828,17,17,3,False,0.2899436874107268,0.4717865078507574,0.6290322580645161,0.4895833333333248,0.04166666666664627,0.6770833333333283,0.5737704918032787
828,15,15,2,False,0.27340747845115937,0.43927660598172197,0.5645161290322581,0.08854166666665052,0.0312500000000119,0.6249999999999932,0.5081967213114754
828,10,10,2,False,0.2176401585473105,0.34277833418048426,0.3870967741935484,0.058510638297870864,0.03191489361706087,0.6276595744681601,0.5081967213114754
828,12,12,0,False,0.24115228191332025,0.38334244487710534,0.4838709677419355,0.08854166666665533,0.031250000000040794,0.6145833333333922,0.45901639344262296
828,1,1,1,True,0.07713892158398501,0.11374247245417145,0.1774193548387097,0.048913043478264265,0.02173913043482826,0.6739130434782005,0.45901639344262296
828,1,1,1,True,0.07374473526466499,0.11083358652809708,0.0967741935483871,0.043478260869573855,0.021739130434772738,0.6413043478260227,0.47540983606557374
828,5,5,2,False,0.1555186299525847,0.22037067694753595,0.22580645161290322,0.054347826086931846,0.021739130434772738,0.63043478260875,0.45901639344262296
828,6,6,5,False,0.16734555101407758,0.25446172404366435,0.3548387096774194,0.09239130434788716,0.043478260869427035,0.6956521739129892,0.5409836065573771
828,0,0,0,True,0.0464815741493357,0.02727689542648734,0.03225806451612903,0.07058823529414439,0.02352941176469432,0.15294117647075878,0.4426229508196721
828,0,0,0,True,0.04130162658997022,0.022868175552885298,0.0,0.07142857142853591,0.035714285714267956,0.15476190476195212,0.3770491803278688
828,1,1,1,True,0.05882870135507788,0.0694829707817482,0.0967741935483871,0.046511627907014866,0.023255813953477075,0.41860465116295165,0.4262295081967213
828,0,0,0,True,0.03298138726529227,0.027503647362963766,0.03225806451612903,0.058139534883692695,0.023255813953477075,0.13953488372098388,0.45901639344262296
828,0,0,0,True,0.026064363412227804,0.026573339058300022,0.03225806451612903,0.0344827586206731,0.0229885057471154,0.114942528735577,0.4262295081967213
828,3,3,1,True,0.1208529150626024,0.1718822123953175,0.25806451612903225,0.06179775280895976,0.033707865168523504,0.6179775280899497,0.5573770491803278
828,0,0,0,True,0.03149459862931516,0.028221510239714233,0.04838709677419355,0.03448275862055721,0.022988505746878104,0.13793103448294902,0.45901639344262296
828,8,8,5,False,0.18511783095498105,0.28023855510735335,0.4032258064516129,0.1130952380951197,0.05952380952365561,0.6309523809524401,0.6229508196721312
828,1,1,1,True,0.05318058254824199,0.05472427115754487,0.08064516129032258,0.08235294117644024,0.04705882352914872,0.2823529411763665,0.4426229508196721
828,0,0,0,True,0.046514888628879716,0.042944217320439085,0.06451612903225806,0.06024096385539895,0.03614457831311356,0.2530120481928014,0.5901639344262295
828,1,1,0,True,0.04850195545202666,0.04600407464352263,0.08064516129032258,0.06626506024100175,0.03614457831311356,0.20481927710848224,0.4918032786885246
828,4,3,5,True,0.10856574133635954,0.15742532712433102,0.4032258064516129,0.06329113924061341,0.037974683544156555,0.6835443037974617,0.5573770491803278
828,8,8,2,False,0.18110156979774364,0.26324434801519603,0.3709677419354839,0.0602409638555096,0.024096385542405143,0.6987951807227036,0.5573770491803278
828,4,3,2,False,0.14098887144452316,0.17505622318678488,0.22580645161290322,0.07228915662647874,0.036144578313365185,0.819277108433929,0.47540983606557374
828,4,4,4,True,0.11295431472402243,0.17079447588958332,0.43548387096774194,0.08641975308651526,0.04938271604936362,0.6913580246913484,0.4426229508196721
828,3,1,3,True,0.12177031206517243,0.19398671281930732,0.25806451612903225,0.03571428571439227,0.02380952380951197,0.8690476190475599,0.4426229508196721
828,4,3,3,False,0.13180251582862096,0.21033960718950523,0.2903225806451613,0.0602409638555096,0.03614457831310446,0.8313253012046737,0.5409836065573771
828,2,2,2,True,0.0831281742244454,0.1267214067810839,0.1935483870967742,0.047619047619284406,0.02380952380976652,0.6666666666667496,0.5409836065573771
829,0,0,2,True,0.061883279326813624,0.10343098348476684,0.3870967741935484,0.061728395061725234,0.024691358024695735,0.29629629629629645,0.7049180327868853
829,3,3,2,True,0.08306471620599674,0.10663165097834856,0.27419354838709675,0.04819277108434607,0.024096385542173034,0.5903614457831371,0.4098360655737705
829,3,3,4,True,0.07352882626181338,0.11484200149101444,0.25806451612903225,0.05487804878050139,0.024390243902459214,0.41463414634148826,0.4918032786885246
829,3,3,3,True,0.09335720515086922,0.13966510308812352,0.3870967741935484,0.06962025316454128,0.025316455696223865,0.632911392405101,0.5737704918032787
829,1,1,0,True,0.04719826879767591,0.07293271968475487,0.2903225806451613,0.030487804878066058,0.012195121951245525,0.2926829268292559,0.5573770491803278
829,2,2,1,True,0.052909275752042184,0.0862964293247064,0.2903225806451613,0.048780487804916874,0.024390243902490272,0.3170731707316731,0.6065573770491803
829,4,4,5,True,0.06731092789365006,0.10322511240998739,0.3709677419354839,0.060240963855422824,0.036144578313234824,0.3012048192771456,0.5573770491803278
829,3,3,3,True,0.08463633487521079,0.1405676028337131,0.22580645161290322,0.048780487804916874,0.0243902439024266,0.5487804878047895,0.5737704918032787
829,2,2,2,True,0.05589376619090724,0.08062663664327302,0.24193548387096775,0.049382716049392664,0.024691358024680216,0.2962962962962915,0.4262295081967213
829,2,2,2,True,0.0581144371858253,0.0901062503377626,0.3225806451612903,0.04938271604942171,0.024691358024678624,0.30864197530861176,0.5573770491803278
829,1,1,1,True,0.0687183159731047,0.09353202922581297,0.1935483870967742,0.03658536585377191,0.02439024390230236,0.5243902439024933,0.5573770491803278
829,4,4,3,True,0.06316922428655838,0.10021082697595518,0.3387096774193548,0.04761904761902394,0.02380952380951197,0.3214285714285359,0.5081967213114754
829,1,1,1,True,0.06980069404429194,0.09879471684771747,0.24193548387096775,0.035714285714267956,0.02380952380951197,0.5476190476188997,0.5081967213114754
829,2,2,2,True,0.04312713994706533,0.06294200636478292,0.1774193548387097,0.04166666666665113,0.01190476190488178,0.273809523809546,0.45901639344262296
829,2,2,2,True,0.04824938170121241,0.07262144880076105,0.1935483870967742,0.04878048780473206,0.02439024390230236,0.3048780487804987,0.5573770491803278
829,6,6,5,True,0.08535054350858716,0.12576722013274738,0.5161290322580645,0.056250000000035896,0.025000000000117477,0.4750000000000131,0.5901639344262295
829,0,0,0,True,0.042889994272686714,0.06317225498065518,0.3387096774193548,0.04487179487190472,0.02564102564101191,0.2179487179487351,0.6557377049180327
829,3,3,4,True,0.07694973744139905,0.11794949933164416,0.3064516129032258,0.036585365853767246,0.0243902439024266,0.4756097560975734,0.639344262295082
